time,position,velocity,q_current,command_position
9.159557521343231e-07,0.736480712890625,-0.0010004759533330798,1.036150336265564,0.7940338134848429
0.013650374952703714,0.7365264892578125,0.0021679261699318886,1.1177173852920532,0.7958717168034324
0.02724079100880772,0.73651123046875,0.0005072312778793275,1.130248785018921,0.8013397968552263
0.040781958028674126,0.736602783203125,0.004574808292090893,1.2619746923446655,0.8103590056834784
0.05431912501808256,0.73724365234375,0.03136624023318291,1.442199945449829,0.8228731649655222
0.06786166597157717,0.7393798828125,0.11526372283697128,1.7805638313293457,0.8388009169076412
0.08140112494584173,0.7422332763671875,0.17883674800395966,1.8651065826416016,0.8580179907563885
0.09494849992915988,0.7461395263671875,0.253933846950531,2.1366114616394043,0.8804026072599974
0.10849374998360872,0.75274658203125,0.42210865020751953,2.4777841567993164,0.9057781847503112
0.12202904094010592,0.7624053955078125,0.6393347382545471,2.5651652812957764,0.9339425923514209
0.1355569160077721,0.7705535888671875,0.5862443447113037,3.2629971504211426,0.9646922992405598
0.14909220801200718,0.7858428955078125,1.0175946950912476,3.4433236122131348,0.9978387347311721
0.16262887499760836,0.8105926513671875,1.552329659461975,3.1997146606445312,1.0331298274942882
0.17533912498038262,0.8394622802734375,2.110297441482544,2.9785146713256836,1.0679883499055263
0.18887104094028473,0.869049072265625,2.11590313911438,3.209873914718628,1.1066785298351867
0.20239995792508125,0.904693603515625,2.532522439956665,3.129096746444702,1.1467132823549937
0.21593766601290554,0.94384765625,2.743335247039795,2.7049789428710938,1.1878388901924848
0.22866754094138741,0.986236572265625,3.1881372928619385,2.740652561187744,1.2272164060206885
0.24219645792618394,1.02996826171875,3.131183385848999,2.6030921936035156,1.2695280846083319
0.2557932499330491,1.0714569091796875,3.085332155227661,2.4287543296813965,1.3122298261067316
0.26937624998390675,1.117340087890625,3.327885389328003,2.47694730758667,1.3547558372824196
0.2829643749864772,1.1623992919921875,3.2895405292510986,2.8611979484558105,1.3968555932128135
0.29661316599231213,1.2010955810546875,2.990419626235962,2.974358558654785,1.4383888000858762
0.31016133294906467,1.244171142578125,3.145955801010132,2.325234889984131,1.4785672453235756
0.3236965829273686,1.288848876953125,3.2358949184417725,2.605441093444824,1.5173729935021099
0.33722520794253796,1.327117919921875,2.945101737976074,2.397002935409546,1.5545466355866524
0.35075283295009285,1.36676025390625,2.8894522190093994,2.186513900756836,1.5898365462316402
0.36428637499921024,1.4086456298828125,3.083576202392578,2.1832127571105957,1.6230047395885023
0.3778170410078019,1.4494781494140625,2.9833929538726807,2.4410862922668457,1.6537893881677053
0.39134904101956636,1.4840087890625,2.7157514095306396,2.6620140075683594,1.6819780532100697
0.404676332953386,1.5126495361328125,2.301276922225952,2.0383505821228027,1.7070017026036863
0.41836491599678993,1.546844482421875,2.3867499828338623,2.0880844593048096,1.7296894178630258
0.43197616597171873,1.5746307373046875,2.1708950996398926,2.05788254737854,1.7490557665957525
0.4456155829830095,1.5974578857421875,1.7707980871200562,1.9927921295166016,1.7651257664019713
0.4592029160121456,1.62078857421875,1.7667516469955444,2.5676193237304688,1.7776965754465794
0.47237645799759775,1.6318817138671875,1.087695837020874,2.2866790294647217,1.7865215992778394
0.48596845800057054,1.643096923828125,0.9126747250556946,2.4014992713928223,1.7920919029061677
0.49954479094594717,1.6513671875,0.6856123208999634,2.7238969802856445,1.7940317683450888
0.5125756659545004,1.6556396484375,0.4445427358150482,2.6396138668060303,1.7924737733735014
0.5261507909744978,1.65972900390625,0.34287723898887634,2.56489634513855,1.7872995190668506
0.5397313749417663,1.662567138671875,0.24517932534217834,2.5714240074157715,1.7785345761404376
0.5533511659596115,1.6636505126953125,0.1240094006061554,2.251936197280884,1.7662035715852933
0.5669564999407157,1.663238525390625,0.015469602309167385,2.058788299560547,1.7504354358969763
0.5805573749821633,1.6617584228515625,-0.061491772532463074,1.831711769104004,1.7313408958957033
0.5941774999955669,1.65863037109375,-0.17474457621574402,1.4615939855575562,1.7090209728179695
0.6077565409941599,1.6537933349609375,-0.3006172478199005,1.1870689392089844,1.683744597802312
0.6213386659510434,1.6468505859375,-0.449713796377182,0.797980546951294,1.6556263758671177
0.6349422909552231,1.638092041015625,-0.5375004410743713,0.46441423892974854,1.6248257182687715
0.6485278329346329,1.622528076171875,-0.9039872884750366,0.7631804943084717,1.591655476069449
0.6620973750250414,1.6092071533203125,-0.8748432993888855,0.03322130814194679,1.5563607493378777
0.6756764579331502,1.5837249755859375,-1.7021586894989014,0.2092691957950592,1.5191334914867247
0.6892654999392107,1.55499267578125,-2.0761725902557373,0.23891210556030273,1.4802395813433362
0.7028635409660637,1.51861572265625,-2.505465507507324,0.30354738235473633,1.439961984564446
0.7164417909225449,1.4841766357421875,-2.5503902435302734,0.3949640691280365,1.398680584852639
0.7300409579183906,1.444732666015625,-2.7957592010498047,0.45840927958488464,1.3565727697152794
0.7436192079912871,1.40032958984375,-3.333610773086548,0.8173524737358093,1.31407429310986
0.7563937499653548,1.3575439453125,-3.2190358638763428,0.4125867486000061,1.2739526580003437
0.7700174580095336,1.3137359619140625,-3.398249626159668,1.089858889579773,1.2313127835937676
0.7836582500021905,1.2764892578125,-2.8219151496887207,0.4920428395271301,1.189079735536994
0.7972621249500662,1.224395751953125,-3.725358009338379,1.018541693687439,1.1477280851478175
0.8108451659791172,1.1944580078125,-2.6243603229522705,0.6743936538696289,1.1075054319194517
0.8243437500204891,1.1486968994140625,-3.27329683303833,0.7101160287857056,1.0688774496007327
0.8379117079311982,1.1120758056640625,-2.9645771980285645,0.6675927042961121,1.0316825857944982
0.8512395409634337,1.0714569091796875,-3.1460275650024414,0.7515129446983337,0.9969997128676853
0.8648801249219105,1.0386505126953125,-2.581325054168701,0.579539954662323,0.9636604654067861
0.878471624921076,1.0011749267578125,-2.713181972503662,0.5289821028709412,0.9328531300574986
0.8920828329864889,0.9604339599609375,-3.0296647548675537,0.7022421360015869,0.9046393728617406
0.9056944160256535,0.93072509765625,-2.4224436283111572,0.5178475379943848,0.8792712409943568
0.9192785830236971,0.8986663818359375,-2.4132931232452393,0.9128220081329346,0.8569768166058325
0.9329003329621628,0.8729095458984375,-1.984523057937622,0.6328204870223999,0.8378160626799451
0.9465734999394044,0.8488922119140625,-1.783923625946045,0.7576801776885986,0.8219419658613076
0.9601601660251617,0.8258819580078125,-1.693251371383667,0.825828492641449,0.8096173432813959
0.9737593330210075,0.80841064453125,-1.3972814083099365,0.7034128904342651,0.8008143716876632
0.9874024579767138,0.7952423095703125,-1.0671018362045288,0.5679142475128174,0.7955992830165888
1.0010054159210995,0.7887115478515625,-0.6559976935386658,0.41085776686668396,0.7940437902432795
1.0141799999400973,0.784393310546875,-0.42809003591537476,0.2808556854724884,0.7960170060976784
1.0277914999751374,0.7838134765625,-0.1622547060251236,0.33629605174064636,0.8016374246962136
1.041370499995537,0.78399658203125,-0.03924337401986122,0.44119590520858765,0.8108309223736677
1.0549795409897342,0.78436279296875,0.0017096626106649637,0.5980889797210693,0.8235716608872106
1.0685809159185737,0.7853851318359375,0.05017301067709923,0.7224225997924805,0.8397400936023297
1.0821730409516022,0.7883453369140625,0.1613314151763916,1.1530241966247559,0.8592100517501724
1.0957295829430223,0.79266357421875,0.2772778272628784,1.2123827934265137,0.8817861914539247
1.1093134159455076,0.7977447509765625,0.33317604660987854,1.8320908546447754,0.9074058783873055
1.122869374928996,0.8036651611328125,0.4145297408103943,2.069843292236328,0.9357791858884902
1.1365128749748692,0.8126373291015625,0.5882402658462524,2.3752336502075195,0.9669579212655581
1.1501318749506027,0.8242645263671875,0.7947805523872375,2.6242146492004395,1.0004764617987023
1.1634497080231085,0.8403472900390625,1.0896704196929932,2.8806467056274414,1.0353331007775073
1.1770621659234166,0.85894775390625,1.280447244644165,3.1259560585021973,1.0728298288423188
1.1897045830264688,0.88153076171875,1.6565866470336914,3.3019208908081055,1.109108947937832
1.2032941249199212,0.91363525390625,2.1740946769714355,3.2346038818359375,1.1493999997777593
1.2162382500246167,0.947998046875,2.5049712657928467,2.7924094200134277,1.188761847084142
1.2299300000304356,0.99053955078125,2.962963104248047,2.529421806335449,1.2311490254395479
1.242871416034177,1.031494140625,3.023775577545166,2.7475900650024414,1.2716461937481591
1.2564442500006407,1.073150634765625,3.0962438583374023,2.771028995513916,1.3142734904749072
1.2700664999429137,1.1219329833984375,3.45111083984375,2.3180527687072754,1.3569076931515902
1.2836779999779537,1.1675262451171875,3.3439619541168213,2.5784544944763184,1.39904855466211
1.2972692080074921,1.208740234375,3.164621114730835,2.6318180561065674,1.4403608197996711
1.3108383329818025,1.25146484375,3.1959571838378906,2.393098831176758,1.4805422780655697
1.324411915964447,1.2974700927734375,3.2895219326019287,2.3685407638549805,1.5193813646673235
1.3379595410078764,1.3362579345703125,3.026040554046631,2.199110507965088,1.556512953747891
1.3514975829748437,1.37548828125,2.8823091983795166,2.207378387451172,1.5917196325180187
1.3650364999193698,1.41864013671875,3.1085011959075928,2.1989293098449707,1.6247757510872587
1.3785647499607876,1.457305908203125,2.904609441757202,2.0890636444091797,1.6554167455589828
1.3921018749242648,1.4921417236328125,2.6581029891967773,2.631673812866211,1.6834657768220551
1.4056381250265986,1.5206756591796875,2.3325376510620117,1.9739569425582886,1.7086975984030384
1.4192904999945313,1.553955078125,2.2970163822174072,2.288510322570801,1.7311089936687638
1.4328818749636412,1.5804290771484375,2.097787618637085,2.2556915283203125,1.750227831523561
1.4458789159543812,1.6018524169921875,1.775063157081604,2.049429416656494,1.7654023415104259
1.459274624940008,1.6242828369140625,1.6525977849960327,2.557968854904175,1.7777536433705137
1.4729177909903228,1.6342926025390625,1.00294029712677,2.4013755321502686,1.786812441164024
1.4865167079260573,1.644927978515625,0.8405026793479919,2.173529863357544,1.7922406005332574
1.5001776659628376,1.65228271484375,0.6103457808494568,2.3009824752807617,1.7940335019406137
1.5128775410121307,1.65863037109375,0.5638772249221802,2.486243724822998,1.7923980192120148
1.5260843329597265,1.66497802734375,0.4919039309024811,2.444678544998169,1.7873336272648541
1.539735083002597,1.6687469482421875,0.3350631594657898,2.232595443725586,1.778531698014761
1.5533164999214932,1.67022705078125,0.1681516468524933,2.1132397651672363,1.7662393876467855
1.5662032909458503,1.669769287109375,0.029018249362707138,2.00722074508667,1.7513967073922267
1.5797709999606013,1.668212890625,-0.05871542543172836,1.715975284576416,1.7325332853877
1.593335249926895,1.6650390625,-0.17594128847122192,1.440542459487915,1.7104911017444282
1.6069296660134569,1.65948486328125,-0.3379438817501068,1.1613681316375732,1.6853667922071938
1.6204753749771044,1.652252197265625,-0.4591778814792633,0.7516758441925049,1.657494176566433
1.6340889999410138,1.6420745849609375,-0.61650550365448,0.6837475299835205,1.6268311288291593
1.6467487500049174,1.6284942626953125,-0.9079461693763733,0.2426212728023529,1.5961279276205815
1.6604197500273585,1.61602783203125,-0.8215353488922119,0.053264208137989044,1.5608328791036483
1.6734101249603555,1.5953826904296875,-1.4239965677261353,0.024497803300619125,1.5254680092295756
1.6870412499411032,1.5671539306640625,-1.94080650806427,0.03044726699590683,1.4867062335085128
1.7006557499989867,1.528839111328125,-2.606966018676758,0.2665858268737793,1.446581733799283
1.7142922079656273,1.491302490234375,-2.721282482147217,0.05335497111082077,1.4052743913480623
1.7278644159669057,1.4532623291015625,-2.797250509262085,0.31132203340530396,1.36335082061659
1.7431522499537095,1.4044342041015625,-3.1600184440612793,0.8776995539665222,1.3155400178677965
1.756798957940191,1.352508544921875,-3.570255756378174,0.43941423296928406,1.272680753156282
1.7703939999919385,1.3139801025390625,-3.254784345626831,0.8821255564689636,1.2301393628177202
1.784026624984108,1.2737884521484375,-2.9053261280059814,0.6448092460632324,1.1879485165492372
1.7976022909861058,1.2226409912109375,-3.7493536472320557,0.8067244291305542,1.146706530843567
1.811179457930848,1.1932220458984375,-2.6013641357421875,0.5076278448104858,1.1065314511061322
1.8247777909273282,1.146759033203125,-3.283451557159424,0.5828564167022705,1.0676607877401518
1.8383507080143318,1.1117706298828125,-2.891829490661621,0.6729938387870789,1.0305095266109532
1.8514890410006046,1.0694580078125,-3.2167015075683594,0.8592278361320496,0.9963695557806596
1.8651359579525888,1.03564453125,-2.670203685760498,0.6473501920700073,0.9630576106810051
1.878732666024007,0.999053955078125,-2.665977716445923,0.5619943141937256,0.9322865145508424
1.8922924579819664,0.95709228515625,-3.073983907699585,0.7964710593223572,0.9042266074830378
1.905898749944754,0.928955078125,-2.3336400985717773,0.6764947772026062,0.8789130824822046
1.9194799999240786,0.89459228515625,-2.50669527053833,0.8247999548912048,0.8566698171812865
1.9330999159719795,0.8728179931640625,-1.8901737928390503,0.5156263709068298,0.837559836693778
1.9466684160288423,0.8495635986328125,-1.6952372789382935,0.7351964712142944,0.821843821006501
1.960235874983482,0.82476806640625,-1.7452749013900757,0.9501262903213501,0.8095584798884803
1.9734682909911498,0.80902099609375,-1.4214715957641602,0.7381113767623901,0.8009652652486428
1.9870934579521418,0.796661376953125,-1.048671841621399,0.6082178354263306,0.7956769798188035
2.000698082963936,0.789825439453125,-0.6549955010414124,0.3705974519252777,0.7940386231227365
2.0143431660253555,0.785430908203125,-0.3922290503978729,0.267963707447052,0.7960628779196388
2.027599124936387,0.7844696044921875,-0.1747475266456604,0.29879167675971985,0.8015327863986434
2.0412068750010803,0.7847442626953125,-0.03921099007129669,0.4036855399608612,0.8106990578239834
2.053974458016455,0.7850494384765625,0.000832804711535573,0.5078632831573486,0.822511845327111
2.0669347499497235,0.785858154296875,0.038871701806783676,0.7323883771896362,0.8376042895316356
2.080522791016847,0.788116455078125,0.12115943431854248,0.967909574508667,0.8566740663457464
2.094162749941461,0.7923126220703125,0.25077730417251587,1.3502334356307983,0.8790208081375566
2.1077518329257146,0.79730224609375,0.32586121559143066,1.5984184741973877,0.904313762867037
2.1213520410237834,0.8032073974609375,0.4007726311683655,1.989382028579712,0.9324702729841188
2.1349436659365892,0.8112030029296875,0.5418659448623657,2.3243660926818848,0.9632451478639817
2.148531374987215,0.8224029541015625,0.7550855875015259,2.7111079692840576,0.9964210925597812
2.1621139160124585,0.8378143310546875,1.029264211654663,2.7473697662353516,1.0317511176869631
2.175694749923423,0.8564453125,1.2705574035644531,3.309384346008301,1.0689854499416809
2.188401082996279,0.87750244140625,1.5307523012161255,3.2750744819641113,1.1053105011802027
2.201569665921852,0.9073333740234375,2.093407392501831,3.168930768966675,1.1442226529666086
2.2151826249901205,0.9432220458984375,2.4521820545196533,2.6758413314819336,1.1855221804326266
2.2287960409885272,0.98382568359375,2.8799524307250977,2.609006643295288,1.2276165016770615
2.242384332930669,1.029022216796875,3.1065022945404053,2.784402370452881,1.2701176189544743
2.2559907499235123,1.07122802734375,3.1306052207946777,2.4239723682403564,1.3128498654552836
2.2695829999865964,1.119415283203125,3.4464499950408936,2.282857656478882,1.3554005025580114
2.283196415985003,1.166412353515625,3.414980173110962,2.531743049621582,1.3975688814930527
2.2967634999658912,1.208526611328125,3.2385544776916504,2.631603240966797,1.4388409120950725
2.310397082939744,1.25079345703125,3.153942823410034,2.093294382095337,1.4792553866640188
2.324020790983923,1.295928955078125,3.2260220050811768,2.455763816833496,1.5182838024721175
2.3375644159968942,1.335205078125,3.039844512939453,2.3469467163085938,1.555455622218045
2.3511386659229174,1.3736572265625,2.835066795349121,2.1927595138549805,1.590812928763086
2.3646956250304356,1.4159393310546875,3.063210964202881,2.1379075050354004,1.623971869064651
2.3782259579747915,1.4559478759765625,2.9548213481903076,1.9327149391174316,1.6546803650074458
2.391601208015345,1.4914093017578125,2.7363674640655518,2.5713000297546387,1.6824773451178647
2.4051446249941364,1.52130126953125,2.414869546890259,2.0974364280700684,1.7078293140064007
2.4186762910103425,1.5530853271484375,2.2969095706939697,2.092710256576538,1.7301686233285873
2.4313411249313504,1.5796356201171875,2.210792064666748,2.347630739212036,1.7482251787832828
2.4448877909453586,1.602783203125,1.7996056079864502,1.9270581007003784,1.7643546707972486
2.458003249950707,1.623809814453125,1.6383109092712402,2.5509371757507324,1.7767272959898894
2.471530165988952,1.6352691650390625,1.0921201705932617,2.2869744300842285,1.7860554973167773
2.4846919160336256,1.648162841796875,1.0048580169677734,2.419121742248535,1.7917227781917617
2.498221250018105,1.6583251953125,0.8300467133522034,2.347710609436035,1.7940025868519716
2.5117492499994114,1.664459228515625,0.5475751161575317,2.392397403717041,1.7926719838080412
2.525286625023,1.667388916015625,0.3219696879386902,2.541447162628174,1.787736320174208
2.538822582922876,1.668243408203125,0.13378570973873138,2.346057415008545,1.7792320283740897
2.551515999948606,1.667816162109375,0.021941816434264183,2.1936147212982178,1.7680687802282125
2.565306333010085,1.6669769287109375,-0.02958117425441742,2.1266536712646484,1.7525280719455487
2.578917415929027,1.664886474609375,-0.1093711331486702,1.8814160823822021,1.7338154672417343
2.592504624975845,1.6611480712890625,-0.22697065770626068,1.4228599071502686,1.7119295167979212
2.606083624996245,1.655792236328125,-0.3403586745262146,1.3005249500274658,1.6870156538784844
2.6196930409641936,1.6491241455078125,-0.4424228072166443,0.9333388209342957,1.6591775852008233
2.633322749985382,1.6403656005859375,-0.5286006927490234,0.6472203135490417,1.6286238244176645
2.6469168750336394,1.626373291015625,-0.8304265737533569,0.10424637794494629,1.5957068830501697
2.659728916012682,1.6129302978515625,-0.920056164264679,0.1876625269651413,1.5626658815962415
2.673329040990211,1.59326171875,-1.3487589359283447,0.017463423311710358,1.5256937812246176
2.6860695410287008,1.56695556640625,-1.9827762842178345,0.2807864546775818,1.4895195855520074
2.699741250020452,1.5278472900390625,-2.5762460231781006,0.16354118287563324,1.4493152076411353
2.712678874959238,1.4946746826171875,-2.6314423084259033,0.02531202882528305,1.4102099963275343
2.7263012080220506,1.458343505859375,-2.613065004348755,0.04537000507116318,1.3682109397158362
2.7398903749417514,1.41583251953125,-3.1086208820343018,0.7649346590042114,1.3257727834547752
2.7535188749898225,1.3637542724609375,-3.586477041244507,0.6118619441986084,1.2829798423162853
2.7671185409417376,1.32586669921875,-3.184079170227051,0.9049031138420105,1.2403579662346165
2.7807437499286607,1.2829742431640625,-3.063664674758911,0.5970896482467651,1.1980490151228205
2.7935213330201805,1.2387847900390625,-3.552057981491089,0.8024887442588806,1.1590051355406217
2.8071368749951944,1.2042388916015625,-2.637976884841919,0.3679902255535126,1.1183639966630228
2.8207410409813747,1.15985107421875,-3.1855275630950928,0.733165442943573,1.0790400013176058
