time,position,velocity,q_current,command_position
5.00003807246685e-07,0.3407440185546875,-0.006428163032978773,0.6029053926467896,0.36764221191652996
0.01366741699166596,0.3408203125,0.01971316896378994,0.5104767680168152,0.36948470440561193
0.027263334020972252,0.340789794921875,0.01690201461315155,0.6527466773986816,0.37496026277748623
0.040806125034578145,0.3407440185546875,-0.003215422620996833,0.8820095062255859,0.3839866520262879
0.05440970906056464,0.3408355712890625,0.010376066900789738,0.9315483570098877,0.3965768907785836
0.06795437505934387,0.340789794921875,-0.014165154658257961,1.3509790897369385,0.4125298507554836
0.08050945901777595,0.3408355712890625,-0.06593958288431168,1.859848976135254,0.4302621682338058
0.0940533340908587,0.341217041015625,0.0013966488186269999,2.092329740524292,0.45243759236321834
0.10759979207068682,0.34222412109375,0.0038941362872719765,2.6569530963897705,0.47762310228428506
0.1211341250455007,0.3439483642578125,-0.009691152721643448,3.2753093242645264,0.5056061447544851
0.13468054204713553,0.347015380859375,0.35791903734207153,3.485569477081299,0.5362341293097499
0.14821595908142626,0.3559417724609375,0.6936023235321045,3.859130859375,0.5692338229355223
0.16175033408217132,0.369384765625,0.9449133276939392,4.483648300170898,0.6043877439542554
0.1752900000428781,0.384033203125,1.0303833484649658,4.667313575744629,0.6414591006122546
0.18882912502158433,0.4045562744140625,1.6804097890853882,4.225203037261963,0.680164846191806
0.20236695907078683,0.433563232421875,2.1466867923736572,4.729727745056152,0.7202226170742342
0.21591554209589958,0.467254638671875,2.599182605743408,4.217218399047852,0.7613793710614732
0.22944462508894503,0.5086517333984375,3.243706226348877,4.110934734344482,0.803244976410048
0.24298654205631465,0.5510406494140625,2.907039165496826,4.40432071685791,0.8456159143436804
0.2556002920027822,0.5902862548828125,3.102240562438965,4.189759254455566,0.8852324176526442
0.26918100006878376,0.6378173828125,3.6798365116119385,3.6879308223724365,0.927755334663721
0.2827821250539273,0.688385009765625,3.4119529724121094,4.350072860717773,0.9699036065517193
0.2964244590839371,0.7315216064453125,3.0845775604248047,3.9978299140930176,1.0114295021007456
0.3093544590519741,0.7736358642578125,3.3650083541870117,3.891270160675049,1.0498173678337186
0.32296450005378574,0.82208251953125,3.548912763595581,3.758553981781006,1.088921322807026
0.3356596250087023,0.86456298828125,3.052422285079956,3.887549877166748,1.1239444212339775
0.348498500068672,0.902984619140625,2.8585805892944336,3.362386703491211,1.1577056009343314
0.36209549999330193,0.9475860595703125,3.2820308208465576,2.9826207160949707,1.191398884027484
0.3758265000069514,0.9942169189453125,3.223599433898926,3.02243709564209,1.223026848377538
0.388735834043473,1.03118896484375,2.6544737815856934,3.3086695671081543,1.2503551810003284
0.40154533402528614,1.0635833740234375,2.487009286880493,2.95328950881958,1.2749851822794596
0.4145222920924425,1.093170166015625,2.1325860023498535,3.0507421493530273,1.297247337067994
0.42750729201361537,1.122528076171875,2.2592012882232666,3.055588722229004,1.3166660776855692
0.44111150002572685,1.1498260498046875,1.8348098993301392,3.2510087490081787,1.3338045543574129
0.45473812508862466,1.1714324951171875,1.3908206224441528,3.1045939922332764,1.3475588777068352
0.468365834094584,1.1871795654296875,1.065033197402954,3.127521514892578,1.3577979706404837
0.48194866708945483,1.2028350830078125,1.032893419265747,3.4014596939086914,1.364429641312156
0.4956463340204209,1.21282958984375,0.4593963027000427,3.5085256099700928,1.3674551510758408
0.5092695840867236,1.2175140380859375,0.15210038423538208,3.797940254211426,1.3667944039903066
0.5228618340333924,1.2174224853515625,-0.052041810005903244,3.675645351409912,1.3624925942534136
0.5364912500372157,1.217498779296875,-0.005375175271183252,3.480860471725464,1.3545572089833682
0.5501879170769826,1.2174835205078125,-0.028272364288568497,3.0941104888916016,1.3429877077028687
0.5637695420300588,1.2176361083984375,0.07811902463436127,3.0774943828582764,1.3280410096450894
0.57692720904015,1.217376708984375,-0.029696738347411156,2.7090048789978027,1.3103641918207578
0.5906147920759395,1.2174224853515625,0.011466768570244312,2.2860145568847656,1.2887681176079782
0.6037105420837179,1.2173614501953125,0.024775872007012367,1.8279531002044678,1.2651895811605876
0.617352542001754,1.2172393798828125,-0.0026330151595175266,1.1819355487823486,1.2377693756731876
0.6307941670529544,1.2169036865234375,0.02627559006214142,0.5398279428482056,1.2080927714602954
0.643675959086977,1.2144317626953125,-0.242310032248497,1.4549177418388126e-09,1.1773718228009158
0.6572578339837492,1.2066497802734375,-0.7240929007530212,-0.4753478169441223,1.142789174251479
0.6707980000646785,1.1964263916015625,-0.7356072664260864,-0.8316335678100586,1.1063191372687353
0.6843997089890763,1.180145263671875,-1.4690141677856445,-0.9097133874893188,1.0679455064308736
0.6981018340447918,1.1539459228515625,-2.0646798610687256,-0.9614489078521729,1.0278109872706913
0.7108027500798926,1.1244659423828125,-2.4548983573913574,-1.0671768188476562,0.9895429009814103
0.7243938340106979,1.086334228515625,-2.872851848602295,-0.5645112991333008,0.9477397537823845
0.7379813750740141,1.0433502197265625,-3.2528042793273926,-0.4611316919326782,0.9053639601124237
0.75161170901265,0.9974822998046875,-3.3609085083007812,-0.34201717376708984,0.8625789652600265
0.7652269590180367,0.9518280029296875,-3.3267295360565186,0.021237825974822044,0.8198782549310899
0.778835125034675,0.903045654296875,-3.6173031330108643,0.07428443431854248,0.7775487737185894
0.7924772090045735,0.85345458984375,-3.484618902206421,0.3206102252006531,0.7357747506180201
0.8060625840444118,0.8064727783203125,-3.2927136421203613,-0.21478663384914398,0.695136195835452
0.818853292032145,0.765380859375,-3.251067876815796,0.11852855980396271,0.6580176934389552
0.8325428750831634,0.7209930419921875,-3.1276345252990723,-0.006505187135189772,0.6197958854577168
0.8461687919916585,0.6807098388671875,-2.839439630508423,-0.1610945463180542,0.5835711976351771
0.8597660000668839,0.647308349609375,-2.260371446609497,-0.43864625692367554,0.5494969906160555
0.8733703750185668,0.61639404296875,-2.2391936779022217,-0.4165571928024292,0.5177274080285104
0.8869952500099316,0.582672119140625,-2.4925670623779297,-0.19236376881599426,0.48847098144943896
0.9006042500259355,0.55035400390625,-2.2940866947174072,-0.18497765064239502,0.4620208356349862
0.9133763340068981,0.52239990234375,-2.097625970840454,-0.2961001396179199,0.43989011686500457
0.9270532090449706,0.4936370849609375,-2.085611581802368,-0.291195809841156,0.4192477066047646
0.9406704590655863,0.4671478271484375,-1.860348105430603,-0.160802960395813,0.4019827120869349
0.9542811249848455,0.4417266845703125,-1.8894323110580444,-0.02443467080593109,0.38813034182445133
0.9679275420494378,0.4171295166015625,-1.6821093559265137,0.053669072687625885,0.37776019714839165
0.9810620000353083,0.39727783203125,-1.427133321762085,0.32624751329421997,0.3711777496899888
0.9947363750543445,0.381072998046875,-1.0146300792694092,0.23371170461177826,0.3679156317590953
1.0084191670175642,0.369384765625,-0.7333945631980896,0.37041014432907104,0.3683416297746099
1.0220260000787675,0.3621978759765625,-0.3420337438583374,0.31328874826431274,0.3724227606131252
1.0356084590312093,0.3597412109375,-0.18992936611175537,0.42347297072410583,0.38010438331660523
1.0492566670291126,0.3596649169921875,0.07972922176122665,0.386468768119812,0.3913975111116222
1.0627360420767218,0.3596343994140625,0.04422570392489433,0.8609458208084106,0.4059867317442916
1.0763081250479445,0.359527587890625,-0.04089365899562836,1.124454140663147,0.42401969430179726
1.089993750094436,0.3599395751953125,0.06434940546751022,1.4950783252716064,0.4454677287130149
1.1036270420299843,0.360260009765625,0.04150872305035591,2.0713891983032227,0.46993580226391973
1.1172567500034347,0.3617401123046875,0.16824330389499664,2.593024253845215,0.49731278551268565
1.1307281670160592,0.3671112060546875,0.5209319591522217,2.830540180206299,0.5270398271075523
1.144366041989997,0.3759307861328125,0.7977815270423889,3.1905295848846436,0.5596174178042413
1.1579809590475634,0.3875274658203125,0.8514760136604309,3.82196044921875,0.5943949404824922
1.1716354590607807,0.3983917236328125,0.7200354933738708,4.344633102416992,0.6312804296346713
1.1852856250479817,0.4116973876953125,1.2261332273483276,4.528905868530273,0.6698921032640335
1.1989044999936596,0.4308319091796875,1.3772776126861572,4.187221527099609,0.7098642306205384
1.2124987920979038,0.4571533203125,2.165822744369507,4.786139488220215,0.7509158401019873
1.2261200840584934,0.492462158203125,2.699782371520996,4.486232757568359,0.7929024127063364
1.2397081250092015,0.5334625244140625,2.8652215003967285,4.61589241027832,0.8353318625258275
1.253313917084597,0.573577880859375,3.0091021060943604,4.675558090209961,0.8780524372114374
1.2668953750981018,0.618927001953125,3.528860569000244,3.8800408840179443,0.9206209620006638
1.2804365420015529,0.6715850830078125,3.9075844287872314,4.095846652984619,0.9626796603064975
1.293316708994098,0.71673583984375,3.303128242492676,3.712567090988159,1.0020518184912697
1.3068454170133919,0.7622222900390625,3.347161293029785,3.5555179119110107,1.042454466343398
1.320380459073931,0.81201171875,3.748690128326416,3.2174947261810303,1.0816127406021259
1.3339117499999702,0.861053466796875,3.2455899715423584,3.691047430038452,1.1192142551086828
1.3474569590762258,0.90325927734375,2.9254441261291504,3.305284023284912,1.1550341996326612
1.3610082090599462,0.9470977783203125,3.2606778144836426,2.8068597316741943,1.1887883055637682
1.374629541998729,0.9935302734375,3.176827907562256,2.9888458251953125,1.2203716947110594
1.388295792043209,1.03143310546875,2.5599822998046875,3.342611789703369,1.2494640906888592
1.4010894170496613,1.0621795654296875,2.4302663803100586,3.329970121383667,1.2741529147078139
1.4146274590166286,1.0916290283203125,1.9616615772247314,3.290156126022339,1.2974162791131996
1.4282456249929965,1.12042236328125,2.117687940597534,2.7200441360473633,1.3176816040002435
1.4414903339929879,1.1460723876953125,1.8429341316223145,3.1053483486175537,1.334233615252231
1.4545667089987546,1.1674041748046875,1.3950423002243042,3.1828861236572266,1.347407506524596
1.4681865000166,1.1837921142578125,1.0571141242980957,3.2560431957244873,1.3576864131997757
1.4818099590484053,1.200103759765625,1.2484993934631348,3.179330587387085,1.3643801342316548
1.4954021670855582,1.2127685546875,0.6800785064697266,3.5079498291015625,1.3674335823211188
1.509068625047803,1.21856689453125,0.20573829114437103,3.706495761871338,1.3668307556225012
1.5226858340902254,1.2188262939453125,-0.012334220111370087,3.573836088180542,1.3625714430969342
1.5355937090935186,1.2188262939453125,0.01538214460015297,3.4631738662719727,1.35519031961724
1.5501158339902759,1.2188873291015625,0.021763727068901062,3.305741310119629,1.3430578918503022
1.563778042094782,1.2187957763671875,-0.0008009101147763431,3.0065085887908936,1.3280305934413064
1.5773281670408323,1.21875,-0.011574925854802132,2.604405403137207,1.3097773715259196
1.5909155840054154,1.2187652587890625,0.03362337127327919,2.415785789489746,1.288257949629382
1.604479500092566,1.2187347412109375,-0.007307961583137512,1.6411247253417969,1.2637198283501128
1.6180842090398073,1.2185211181640625,-0.03166722133755684,1.1556389331817627,1.2362200593525687
1.6317017920082435,1.217620849609375,-0.033154383301734924,0.5265336036682129,1.205998960557128
1.6453427920350805,1.2140960693359375,-0.27396097779273987,-0.23412013053894043,1.1732441004282614
1.6589321669889614,1.2066497802734375,-0.6707872748374939,-0.42743974924087524,1.1383820217908958
1.6725903750630096,1.1965484619140625,-0.7455160617828369,-0.9035109877586365,1.1013561611555294
1.686194375040941,1.180694580078125,-1.397623896598816,-0.8767490386962891,1.0627669625314946
1.6998485840158537,1.1544647216796875,-2.0942649841308594,-1.1089187860488892,1.0226030446570973
1.7134364590747282,1.1219329833984375,-2.635570526123047,-0.8384783267974854,0.9815022038341531
1.727015042095445,1.0829315185546875,-2.940567970275879,-0.5859022736549377,0.9396008393244792
1.7406483750091866,1.0394287109375,-3.2116498947143555,-0.3017136752605438,0.8970043060298075
1.7542364170076326,0.9940338134765625,-3.345118999481201,-0.3223241865634918,0.8543346869547097
1.7678009590599686,0.948394775390625,-3.4011409282684326,-0.36188173294067383,0.8118353741149447
1.7813897500745952,0.898651123046875,-3.756680488586426,-0.10353325307369232,0.7696664867464885
1.7940969170304015,0.8520355224609375,-3.5985195636749268,-0.11561562120914459,0.7308733572269004
1.8076676670461893,0.804351806640625,-3.2823708057403564,-0.047996412962675095,0.6904121509409078
1.820697334012948,0.7621917724609375,-3.266293525695801,0.2680085003376007,0.6527723756447399
1.834308834047988,0.71856689453125,-3.04886531829834,-0.15495182573795319,0.6149928806188748
1.8479445000411943,0.6787109375,-2.779376983642578,-0.15463382005691528,0.5789982132523767
1.8615520420717075,0.644927978515625,-2.4114794731140137,-0.09279736876487732,0.5451884975690804
1.8751335000852123,0.6120452880859375,-2.44521427154541,0.17956916987895966,0.5137923831093636
1.8887402500258759,0.5767364501953125,-2.5098721981048584,-0.28076109290122986,0.4849203152265149
1.90235804207623,0.544921875,-2.213487148284912,-0.4222005307674408,0.4588239532668859
1.9159714999841526,0.515655517578125,-2.0406322479248047,-0.14099813997745514,0.43572560236828906
1.9295628340914845,0.4881439208984375,-1.9359720945358276,-0.4293626546859741,0.41581515573709177
1.9428923340747133,0.46380615234375,-1.7181569337844849,-0.05924098193645477,0.39948594127745496
1.9558803340187296,0.4399566650390625,-1.872444748878479,-0.06868752837181091,0.3867311261099644
1.969545833999291,0.4171600341796875,-1.514736533164978,0.10742121189832687,0.3767679424139228
1.983121709083207,0.397247314453125,-1.4977173805236816,0.14153927564620972,0.37045119820624645
1.9965305000077933,0.3831939697265625,-0.8365278244018555,0.020866749808192253,0.3677610118833264
2.0101793340872973,0.3733978271484375,-0.7508879899978638,0.23372212052345276,0.3686645403224456
2.023806625045836,0.36578369140625,-0.4656360149383545,0.3645428419113159,0.37322544159512655
2.0374046250944957,0.3624725341796875,-0.08709459006786346,0.26354822516441345,0.38138739199159716
2.051063209073618,0.3623809814453125,-0.06470566987991333,0.5269969701766968,0.39315672597180007
2.064256125013344,0.362548828125,0.017771949991583824,0.772087574005127,0.4078417989831911
2.077722541987896,0.3626251220703125,0.024580271914601326,1.04647696018219,0.42608697544716667
2.090796542004682,0.36297607421875,0.036427367478609085,1.4735345840454102,0.4468243893884756
2.10441000002902,0.3636627197265625,0.023626526817679405,2.228093385696411,0.4714313755093475
2.1179880420677364,0.3648529052734375,0.10728392004966736,2.090505838394165,0.4988602840805446
2.130780459032394,0.3690185546875,0.34283849596977234,2.7938315868377686,0.5271601138736209
2.1444039170164615,0.377532958984375,0.6212132573127747,2.9364700317382812,0.5597111541753982
2.1579834170406684,0.3901214599609375,0.8426738977432251,3.767462730407715,0.5944014074127304
2.1716200000373647,0.40032958984375,0.666091799736023,4.572049617767334,0.6312376339073752
2.1852196670370176,0.411773681640625,1.0230218172073364,4.5192365646362305,0.6697018019940323
2.197955459007062,0.428314208984375,1.3314162492752075,4.948376655578613,0.707037886156159
2.210743834031746,0.449951171875,2.028202533721924,4.878368854522705,0.7455620260424269
2.22437125002034,0.483551025390625,2.6552999019622803,4.647773742675781,0.7874746374430105
2.2379432499874383,0.5245208740234375,2.9985625743865967,4.9221510887146,0.8298010326522901
2.2515187500976026,0.5638427734375,2.9123311042785645,4.307309150695801,0.8724134336505301
2.265248709009029,0.60943603515625,3.411883592605591,4.162107944488525,0.9154741855744327
2.278830667026341,0.6600799560546875,3.8986246585845947,3.505828619003296,0.9577218740602926
2.2924093750771135,0.7078399658203125,3.205195188522339,4.141936302185059,0.9993040996672379
2.3060451250057667,0.751861572265625,3.1730799674987793,4.234984397888184,1.0400967456027206
2.319647792028263,0.7978668212890625,3.511732339859009,3.6544666290283203,1.0795301515367306
2.3332371670985594,0.846160888671875,3.307288408279419,4.023207664489746,1.1173805269099655
2.346859792014584,0.8872222900390625,2.900667190551758,3.919588804244995,1.1534969941607265
2.360493000014685,0.9293670654296875,3.2601332664489746,3.1343894004821777,1.1875460507658813
2.3741015000268817,0.975555419921875,3.4065539836883545,2.7598836421966553,1.2191940139718356
2.387724959058687,1.0174407958984375,2.767115592956543,3.500403881072998,1.2483037990050267
2.4014027500525117,1.052490234375,2.4905972480773926,3.145425319671631,1.2747252569146998
2.4140862500062212,1.0837860107421875,2.294084310531616,3.5662078857421875,1.2965448708074165
2.427701542037539,1.114501953125,2.2659597396850586,3.3155064582824707,1.3169341929026728
2.4412934590363875,1.143402099609375,1.9304269552230835,2.8118979930877686,1.334010967814864
2.4548866250552237,1.16778564453125,1.462154507637024,3.1502797603607178,1.3476895624710163
2.46847670909483,1.184967041015625,1.1584235429763794,3.149695873260498,1.3578666307777474
2.4819269590079784,1.20086669921875,1.1122589111328125,3.3489832878112793,1.364421918261847
2.4956256670411676,1.2119903564453125,0.5631211400032043,3.3218486309051514,1.3674533710061256
2.509218209073879,1.217529296875,0.3031822443008423,3.464686393737793,1.3668037729755989
2.522843125043437,1.2176971435546875,0.013349671848118305,3.637437343597412,1.3625010047196766
2.536362792016007,1.2176971435546875,-0.001923473086208105,3.5016355514526367,1.3546487711828652
2.5499642500653863,1.21771240234375,0.006459836848080158,3.1392593383789062,1.3432051642986318
2.5635977920610458,1.2177581787109375,0.0633796826004982,3.0575194358825684,1.3282511952091134
2.57717666705139,1.2176666259765625,0.03757716342806816,2.634716033935547,1.3099994286950782
2.590766542009078,1.217681884765625,0.03614022582769394,2.286341667175293,1.2885109250712867
2.603802583995275,1.2175750732421875,0.00910157710313797,1.7573403120040894,1.265014144511855
2.6174297920661047,1.217376708984375,-0.044097259640693665,1.1779606342315674,1.2376061662392794
2.630769292009063,1.216949462890625,-0.020503517240285873,0.5668153762817383,1.208150000425823
2.644393249996938,1.213897705078125,-0.28663569688796997,-0.022514011710882187,1.1755996710738896
2.658002334064804,1.20556640625,-0.7055870294570923,-0.35576331615448,1.1408332439260063
2.6716190420556813,1.19549560546875,-0.756100058555603,-0.9401120543479919,1.104049441859835
2.685214417055249,1.1798553466796875,-1.3956396579742432,-1.0210866928100586,1.0655977675589146
2.698815874988213,1.15386962890625,-2.040036201477051,-1.0264999866485596,1.0256843668889566
2.7124613750493154,1.12176513671875,-2.5297977924346924,-0.8842048645019531,0.9844828815242989
2.7257330000866205,1.0850982666015625,-2.807889223098755,-0.7516633868217468,0.9435841863811998
2.7394309589872137,1.042510986328125,-3.0859572887420654,-0.5633647441864014,0.9008214346658423
2.7531065420480445,0.9972991943359375,-3.3007380962371826,-0.4586827754974365,0.8578833419382839
2.7662282090168446,0.954254150390625,-3.283992290496826,-0.13975924253463745,0.8167480863649911
2.779844250064343,0.905364990234375,-3.7574498653411865,0.34170541167259216,0.7744322353616989
2.7934921249980107,0.855010986328125,-3.5842833518981934,-0.0315406508743763,0.7327018865573737
