time,position,velocity,q_current,command_position
1.9170111045241356e-06,0.7458953857421875,0.0001070658618118614,1.3020696640014648,0.8119476318722076
0.01365541701670736,0.7458648681640625,-0.002161242999136448,1.3962997198104858,0.8137868923198217
0.027214500005356967,0.7458953857421875,-0.0009282793034799397,1.3491957187652588,0.8192395538815327
0.0407544169574976,0.746002197265625,0.0039621517062187195,1.5336655378341675,0.8282509024465876
0.05429291701875627,0.746551513671875,0.02505435235798359,1.6750688552856445,0.8407594314386162
0.0678360000019893,0.748199462890625,0.08618805557489395,1.9290411472320557,0.8566813930419387
0.08137649996206164,0.7507781982421875,0.15408848226070404,2.078404188156128,0.8758939497053766
0.09491970797535032,0.75457763671875,0.24173007905483246,2.5070157051086426,0.8982656147009235
0.1084481249563396,0.7610015869140625,0.4127309024333954,2.9088807106018066,0.9236017030388137
0.12198454199824482,0.7670745849609375,0.412853479385376,2.944579839706421,0.9517594353823333
0.13552137499209493,0.7776947021484375,0.7087364196777344,3.202666997909546,0.9825221140008
0.1490574999479577,0.7990570068359375,1.337503433227539,3.3435540199279785,1.015664713053193
0.16258987493347377,0.8216552734375,1.6116207838058472,3.3157153129577637,1.0509391344373493
0.1761229579569772,0.8547821044921875,2.175645589828491,3.1872758865356445,1.088101367136892
0.18965358298737556,0.886444091796875,2.281097650527954,3.202636480331421,1.1268739154875533
0.20319237501826137,0.924591064453125,2.698275566101074,2.8917236328125,1.1670078568524875
0.21672770800068974,0.966583251953125,2.9939963817596436,2.6106135845184326,1.2081793705056645
0.2302508749999106,1.0126953125,3.221081256866455,2.731682777404785,1.2500630248656655
0.24377637496218085,1.0523834228515625,3.0357797145843506,2.706279754638672,1.2924005197314108
0.2574688330059871,1.0945587158203125,3.057852268218994,2.2668585777282715,1.3354030514371242
0.2710391249274835,1.1425628662109375,3.3646883964538574,2.427443504333496,1.3778516555590148
0.2846189580159262,1.1834564208984375,3.0438923835754395,2.3852577209472656,1.4198506918851068
0.2982644169824198,1.225189208984375,3.0655417442321777,2.255549192428589,1.4612614141449105
0.31185883295256644,1.2721710205078125,3.39135479927063,2.5168166160583496,1.5014268430569973
0.32550291693769395,1.3125152587890625,2.954728841781616,2.5649256706237793,1.540349500886858
0.33892370795365423,1.3520050048828125,3.036733865737915,2.8231372833251953,1.5770000233178403
0.35250499995891005,1.3922119140625,2.9988625049591064,2.3464598655700684,1.612170305664744
0.3661161250201985,1.4364776611328125,3.142340660095215,2.30356764793396,1.6452256092797368
0.37893862498458475,1.4722747802734375,2.8891513347625732,2.1181154251098633,1.6741412983077848
0.3925592079758644,1.50628662109375,2.5337626934051514,1.7374556064605713,1.7022791082251343
0.4061416669283062,1.5419464111328125,2.6488139629364014,2.204094409942627,1.7274932598182215
0.41972200002055615,1.573699951171875,2.360776901245117,1.929848074913025,1.7496795579719775
0.4333490829449147,1.5996551513671875,2.0391323566436768,2.088632822036743,1.7687404832877647
0.4469561669975519,1.6243743896484375,1.8594311475753784,2.5109450817108154,1.7844341372459225
0.46055933297611773,1.636505126953125,1.1872103214263916,2.63179612159729,1.7966732177383538
0.4741460829973221,1.6519927978515625,1.1245803833007812,2.522408962249756,1.8053650357201032
0.487715124967508,1.6630096435546875,0.9295414090156555,2.499795913696289,1.810458868745807
0.5003973329439759,1.669891357421875,0.6477525234222412,2.475907325744629,1.8119460736880686
0.5140046250307932,1.67779541015625,0.6117843389511108,2.506227970123291,1.810013159722606
0.5276017079595476,1.6861572265625,0.6188753843307495,2.3405601978302,1.8044472586990616
0.5412113750353456,1.6906585693359375,0.41034847497940063,2.0857908725738525,1.7952787677649322
0.5548697499325499,1.691986083984375,0.17855212092399597,2.0120890140533447,1.7825264678267456
0.5684628329472616,1.69122314453125,0.018606452271342278,1.845876693725586,1.7663961782751783
0.5820882079424337,1.689697265625,-0.0628727599978447,1.495361328125,1.7469029009939878
0.5957307079806924,1.6872100830078125,-0.14060871303081512,1.2791328430175781,1.7241932538355926
0.6083982499549165,1.682037353515625,-0.3283379077911377,1.0033305883407593,1.7003922356489996
0.6219790829345584,1.6726531982421875,-0.5287011861801147,0.7458699941635132,1.6721477231390454
0.6355652919737622,1.6605377197265625,-0.7224098443984985,0.6704677939414978,1.6412693465171833
0.6491567080374807,1.6431884765625,-1.0738756656646729,0.4923275113105774,1.6079794348930734
0.6627293749479577,1.6233673095703125,-1.3782920837402344,0.4794648587703705,1.572582228326635
0.6759092499269173,1.5997314453125,-1.6779192686080933,0.09496723115444183,1.5363940373998215
0.6895131670171395,1.5665283203125,-2.410454034805298,0.6286704540252686,1.4974310737680525
0.7031391250202432,1.530181884765625,-2.6226985454559326,0.6969894766807556,1.4570475056069616
0.7168532080249861,1.4939422607421875,-2.752718687057495,0.5368908643722534,1.4153301753237897
0.7304568749386817,1.4579925537109375,-2.689587116241455,0.7442394495010376,1.3731899953075055
0.743878124980256,1.418792724609375,-2.9216387271881104,0.6601535677909851,1.3311753272269768
0.7574969170382246,1.3698883056640625,-3.493485927581787,0.8002122640609741,1.288404081143583
0.7706681250128895,1.332763671875,-3.099043846130371,0.8618471026420593,1.247199147775831
0.7843107919907197,1.2905731201171875,-3.060542106628418,0.5218324661254883,1.2049900927485906
0.797655374975875,1.2481842041015625,-3.3220155239105225,0.7754145860671997,1.1644609930003795
0.811223707976751,1.206878662109375,-3.1142873764038086,0.6503404378890991,1.124316406051923
0.8248451249673963,1.1650543212890625,-3.2181167602539062,0.7281193137168884,1.0853860123973773
0.8377303750021383,1.127105712890625,-2.994785785675049,0.7014524340629578,1.0500815298249289
0.851323000038974,1.0857391357421875,-3.1918814182281494,0.7599667310714722,1.014702659037987
0.8648980000289157,1.0503082275390625,-2.8097305297851562,0.741316020488739,0.9815321344246266
0.8776378330076113,1.019866943359375,-2.5436582565307617,0.40500593185424805,0.9525832768483755
0.8912391249323264,0.9833984375,-2.7275583744049072,0.6565500497817993,0.9242213313439089
0.9048401250038296,0.94903564453125,-2.6005818843841553,0.6959621906280518,0.898689866481788
0.9184569999342784,0.9211883544921875,-2.2035415172576904,0.5006158947944641,0.8761501367370602
0.9320466249482706,0.8904266357421875,-2.282508134841919,0.7671140432357788,0.8568339696968501
0.9453333329875022,0.86981201171875,-1.7550575733184814,0.6049760580062866,0.8411535542543062
0.9589276670012623,0.8478546142578125,-1.6568536758422852,0.8785711526870728,0.828504832195091
0.9726202919846401,0.824951171875,-1.5962741374969482,0.8433679938316345,0.8193281359990735
0.9862120000179857,0.8095855712890625,-1.2882046699523926,0.692764401435852,0.8138227586943253
0.9997947500087321,0.7993316650390625,-0.940168023109436,0.597304105758667,0.8119480476182208
1.012466499931179,0.79364013671875,-0.6123059988021851,0.7904725074768066,0.8134807186961579
1.0251021250151098,0.790283203125,-0.3737059235572815,0.6495956182479858,0.818153752885284
1.038225166965276,0.78955078125,-0.14666952192783356,0.5662269592285156,0.8262995468606067
1.0518533749273047,0.7899932861328125,-0.02432727999985218,0.7902729511260986,0.8382508420589618
1.0654611670179293,0.790679931640625,0.02203398011624813,0.8332908153533936,0.8536476320044721
1.079109541955404,0.7932281494140625,0.13542909920215607,1.3033112287521362,0.8724534716717327
1.0927488330053166,0.7974700927734375,0.25493431091308594,1.4446189403533936,0.8944736504161863
1.1063529170351103,0.8019561767578125,0.30198779702186584,1.8719544410705566,0.9194894160385874
1.1199683329323307,0.8083343505859375,0.43034103512763977,2.1625661849975586,0.9473952231530615
1.133615207974799,0.8177337646484375,0.6121058464050293,2.4768638610839844,0.9780409340044405
1.1471882499754429,0.829833984375,0.8348368406295776,2.816857099533081,1.0109548911747608
1.1602493750397116,0.845733642578125,1.1140230894088745,2.9561049938201904,1.044696038823487
1.17381495796144,0.8655242919921875,1.3597553968429565,2.891921043395996,1.081641559513371
1.1873442080104724,0.88970947265625,1.663756251335144,3.074540853500366,1.1201538284450256
1.2001596669433638,0.921966552734375,2.2621726989746094,3.16882586479187,1.1579162703495647
1.2136981670046225,0.9571075439453125,2.4902381896972656,2.7859408855438232,1.1988883717921848
1.2272327919490635,1.0022735595703125,3.100848913192749,2.6580119132995605,1.2406660314284301
1.2407675830181688,1.040740966796875,2.876150369644165,2.601090431213379,1.2829594026265632
1.254304707981646,1.0840606689453125,3.0977914333343506,2.169882297515869,1.3254696219857363
1.2678620419465005,1.1334381103515625,3.4682674407958984,2.267840623855591,1.3679451640291822
1.2814230830408633,1.1776123046875,3.260082244873047,2.2529678344726562,1.4100260433390248
1.2949647080386057,1.2203826904296875,3.1794276237487793,2.7444753646850586,1.4513367108170554
1.308517082943581,1.2661590576171875,3.3857975006103516,2.083500623703003,1.4916704117034485
1.3212150830077007,1.30792236328125,3.2411282062530518,2.5446224212646484,1.5282850322993218
1.334742416976951,1.3465118408203125,3.0522046089172363,2.72593355178833,1.5657714762092674
1.3479764580260962,1.3856048583984375,2.970614194869995,2.1445908546447754,1.6006736045147492
1.3616195829818025,1.4288177490234375,3.06850528717041,2.0515613555908203,1.6345634825806774
1.3752190419472754,1.4671173095703125,2.859997034072876,1.9420627355575562,1.6659872762992571
1.3887805419508368,1.500640869140625,2.553143262863159,1.9732708930969238,1.6947509713619562
1.4023880419554189,1.5354766845703125,2.5624473094940186,2.086110830307007,1.720820144725295
1.4159851250005886,1.5647430419921875,2.3036983013153076,2.1757895946502686,1.7438858036347935
1.4296473750146106,1.594573974609375,2.1727640628814697,2.008631467819214,1.7638883679951656
1.4431034999433905,1.6193084716796875,1.9829365015029907,2.1554458141326904,1.7803364540530797
1.4566582499537617,1.634796142578125,1.3449345827102661,2.2254812717437744,1.7935218038148038
1.470198041992262,1.6504974365234375,1.2571016550064087,1.9317214488983154,1.8032074594551704
1.483825666946359,1.6661834716796875,1.1398981809616089,2.302386522293091,1.8093678754456428
1.4974347919924185,1.674072265625,0.7393651008605957,2.4663681983947754,1.8118826883617818
1.510899291955866,1.680755615234375,0.573182225227356,2.284872055053711,1.810775634618581
1.5244349170243368,1.6858062744140625,0.42876654863357544,2.2040982246398926,1.8060664007347098
1.5381574579514563,1.6900177001953125,0.33936771750450134,2.145742893218994,1.79764627189514
1.5517220000037923,1.6907501220703125,0.13148856163024902,2.1155953407287598,1.7857763619722042
1.5650705000152811,1.6902008056640625,0.015675554051995277,1.790174961090088,1.770736938420676
1.5786790000274777,1.688995361328125,-0.05074336752295494,1.532194972038269,1.7520851553310905
1.5922958749579266,1.68634033203125,-0.14369815587997437,1.5546507835388184,1.7302030448164416
1.6048988749971613,1.6816253662109375,-0.3055863082408905,1.0096876621246338,1.7072197748884783
1.6184958330122754,1.6732177734375,-0.5086251497268677,0.7913746237754822,1.679650433155039
1.632051374996081,1.6616058349609375,-0.6631625890731812,0.8053128719329834,1.6494949841978213
1.6456532080192119,1.646026611328125,-0.9762973189353943,0.511717677116394,1.6167770943831798
1.6587782920105383,1.6302337646484375,-1.140440821647644,0.19349776208400726,1.5830937267104759
1.6724352919263765,1.607574462890625,-1.5285612344741821,0.0162718053907156,1.546092177164999
1.6860587919363752,1.579010009765625,-2.104505777359009,0.6232635974884033,1.5074644847945469
1.699691666988656,1.541534423828125,-2.555279016494751,0.6457139849662781,1.4673770857866164
1.7125187499914318,1.5064697265625,-2.7750768661499023,0.37616342306137085,1.4286130356639715
1.7261372919892892,1.4705963134765625,-2.6408817768096924,0.4029698073863983,1.386633977675778
1.7398329579737037,1.432037353515625,-2.7091729640960693,0.4243015646934509,1.3438666166855746
1.753313250024803,1.3816680908203125,-3.732412815093994,0.8739017248153687,1.3015395017145348
1.7669518330367282,1.3484344482421875,-2.6043596267700195,0.5120996236801147,1.2587925157051867
1.7804300419520587,1.29705810546875,-3.553441286087036,0.5973265767097473,1.2169302317563282
1.7940918329404667,1.26080322265625,-3.006558656692505,0.7043509483337402,1.1751941402011814
1.807719458010979,1.212860107421875,-3.4408347606658936,0.7883120775222778,1.134565438458511
1.8209101250395179,1.179290771484375,-2.898869752883911,0.7990761995315552,1.0964743613669392
1.8345268330303952,1.1376190185546875,-2.978257417678833,0.6979261636734009,1.0587075380862583
1.8473791669821367,1.099365234375,-3.1217119693756104,0.5551770925521851,1.0247556649211693
1.8610034169396386,1.061737060546875,-2.850888729095459,0.5831369161605835,0.9908130773009385
1.8746029579779133,1.02972412109375,-2.4721760749816895,0.23852811753749847,0.9592773461047414
1.888222208013758,0.9926910400390625,-2.7413573265075684,0.4358016848564148,0.9302750466384272
1.901818124926649,0.9560699462890625,-2.795332431793213,0.7999047040939331,0.904108284903808
1.9154362919507548,0.9281158447265625,-2.2776429653167725,0.6443397402763367,0.8808805178461108
1.929084041970782,0.899139404296875,-2.191614866256714,0.7249454259872437,0.8607667995867391
1.9426822919631377,0.874847412109375,-1.9189568758010864,0.5404622554779053,0.8440234927828326
1.9562896669376642,0.8554840087890625,-1.5789287090301514,0.6321169137954712,0.8306862023636522
1.9699302919907495,0.8319549560546875,-1.633604645729065,0.7042295932769775,0.8208450889946668
1.9826458749594167,0.8147430419921875,-1.475580096244812,0.8362533450126648,0.8149170738600773
1.996262792032212,0.8030853271484375,-1.0842429399490356,0.6727674007415771,0.812085471536894
2.009131500031799,0.79510498046875,-0.797287106513977,0.6869602203369141,0.8127703760843481
2.0227570419665426,0.7913818359375,-0.42653438448905945,0.60514235496521,0.8170502292383712
2.0359420420136303,0.789306640625,-0.2278694361448288,0.6963163614273071,0.8246433924459825
2.0496951249660924,0.7897491455078125,-0.04812623932957649,0.6246176958084106,0.8361242719720489
2.0627470000181347,0.790252685546875,0.006612310651689768,0.9317635893821716,0.8503053739413462
2.0763532919809222,0.792083740234375,0.09223076701164246,1.0237947702407837,0.8683905885383278
2.0900272500002757,0.795928955078125,0.22020649909973145,1.4619654417037964,0.8898295465475723
2.1027324580354616,0.8000335693359375,0.28863391280174255,1.7227667570114136,0.9125442088848104
2.1163830829318613,0.8052825927734375,0.35615274310112,2.1604583263397217,0.9397796777342734
2.129453375004232,0.8132171630859375,0.5384359955787659,2.3843305110931396,0.9684242618850494
2.1430985420010984,0.8234100341796875,0.6883149743080139,2.7251033782958984,1.0007960128929683
2.1566425829660147,0.837615966796875,0.962579071521759,2.9807939529418945,1.0351888405810052
2.170327667030506,0.8558502197265625,1.2217522859573364,3.2692315578460693,1.0719733715267372
2.183718374930322,0.8785247802734375,1.5540179014205933,3.249734401702881,1.1096849690191286
2.1973351249471307,0.9085235595703125,2.082763671875,3.174330234527588,1.1494989656549153
2.210548041970469,0.9437103271484375,2.46830677986145,3.006007194519043,1.1892710556405326
2.224180541932583,0.985931396484375,2.962662935256958,2.681783437728882,1.2311887390597192
2.2377957500284538,1.031494140625,3.1424388885498047,2.531934976577759,1.2736444131016706
2.2514584999298677,1.0750732421875,3.17633056640625,2.6771256923675537,1.3165295803687245
2.2651749580400065,1.124114990234375,3.488229990005493,2.2329347133636475,1.3595489674945658
2.2787901249248534,1.171417236328125,3.4297780990600586,2.253129482269287,1.4019020083388267
2.2922222079942003,1.2137451171875,3.257789134979248,2.439040184020996,1.443042178021435
2.3048891249345616,1.2545623779296875,3.295499324798584,2.2156331539154053,1.4809888192592788
2.31851925002411,1.3014984130859375,3.307159185409546,2.5078225135803223,1.5206189474688805
2.3321268749423325,1.3394927978515625,3.027566432952881,2.5543127059936523,1.5586580703011734
2.3458315419266,1.380126953125,2.9137723445892334,2.137296676635742,1.5951461122051689
2.3591231669997796,1.4224090576171875,3.1215109825134277,2.042037010192871,1.6285323046859401
2.372754249954596,1.4611053466796875,2.8576908111572266,2.1863949298858643,1.6604771891241963
2.386094291927293,1.4957733154296875,2.670381784439087,2.5536959171295166,1.6892677543212775
2.3997029999736696,1.52783203125,2.5327000617980957,2.238517999649048,1.7159069901690867
2.4132919169496745,1.559539794921875,2.332353115081787,2.0043416023254395,1.739562345177142
2.4269289169460535,1.5894317626953125,2.2392098903656006,2.288221836090088,1.7601692314054849
2.440482832957059,1.6140289306640625,1.9972230195999146,2.1133713722229004,1.7773921296778745
2.4540222079958767,1.6331939697265625,1.507168173789978,2.3392720222473145,1.7912284070385935
2.467577041941695,1.6473388671875,1.2385163307189941,2.228341579437256,1.8016080612823593
2.481119666947052,1.66259765625,1.1253695487976074,2.3472228050231934,1.8084335677463108
2.494652249966748,1.67071533203125,0.7404670715332031,2.5597643852233887,1.8116654031962174
2.508185292012058,1.6789093017578125,0.6710291504859924,2.3856754302978516,1.8112865238974285
2.521726749953814,1.6876678466796875,0.6388302445411682,2.1771388053894043,1.8072958994793487
2.53527341701556,1.692718505859375,0.4474915862083435,2.121501922607422,1.7997179154612948
2.5488175420323387,1.6941375732421875,0.19542059302330017,2.1992239952087402,1.788610691863838
2.562366332975216,1.6930694580078125,0.011400518007576466,1.8975870609283447,1.7740479343937272
2.575899416930042,1.6915435791015625,-0.06635706126689911,1.6383394002914429,1.75616099066753
2.5892584579996765,1.6890411376953125,-0.14489279687404633,1.4236667156219482,1.7353552821629015
2.602796374936588,1.684783935546875,-0.2600562870502472,1.127320408821106,1.7112302232728898
2.6164054579567164,1.676544189453125,-0.47360923886299133,0.9357472658157349,1.6840686400720095
2.6299879170255736,1.6645355224609375,-0.7020958065986633,0.6465961933135986,1.6542488553052759
2.6435786249348894,1.6497650146484375,-0.9291658401489258,0.4610043466091156,1.6219172342452028
2.6571954579558223,1.636077880859375,-0.9667711853981018,0.24041584134101868,1.5872581940172166
2.670797207974829,1.612335205078125,-1.5615036487579346,0.08211208879947662,1.5506267437932868
2.68442549998872,1.58758544921875,-1.849037766456604,0.2385297417640686,1.5121766847231404
2.6980076669715345,1.5475616455078125,-2.7017083168029785,0.5435284972190857,1.4723966242686584
2.711001000017859,1.512054443359375,-2.724550247192383,0.6853817701339722,1.4332441994342289
2.7246417079586536,1.475341796875,-2.760769844055176,0.5057836174964905,1.3912764147627652
2.7378869579406455,1.4384307861328125,-2.7342031002044678,0.4263155162334442,1.349965148207492
2.751477124984376,1.3899078369140625,-3.630690097808838,0.9666880965232849,1.3073071734571389
2.765080332988873,1.353363037109375,-2.7088968753814697,0.33832329511642456,1.2646422276962976
2.7786671250360087,1.3038177490234375,-3.520766258239746,0.5684554576873779,1.2223733926804252
2.792253957944922,1.2689971923828125,-2.8795175552368164,0.4684717357158661,1.1807568322895285
2.8058769579511136,1.2197113037109375,-3.5500943660736084,0.9175279140472412,1.1399890874011172
2.8194897919893265,1.187713623046875,-2.6832897663116455,0.574196457862854,1.1005093937527521
