time,position,velocity,q_current,command_position
0.0021852079953532666,0.2350311279296875,0.0007412683917209506,1.421242117881775,
0.004243332979967818,0.237823486328125,0.2449980229139328,12.053354263305664,
0.006858290988020599,0.2541046142578125,1.495153546333313,16.38991928100586,
0.008895832987036556,0.2795562744140625,3.1077280044555664,14.448171615600586,
0.010347957984777167,0.297882080078125,4.142365455627441,19.345195770263672,
0.012130374991102144,0.3168487548828125,5.047183036804199,14.521469116210938,
0.013601290993392467,0.3321990966796875,5.697644233703613,14.486034393310547,
0.015126582991797477,0.3501129150390625,6.412294387817383,14.30411434173584,
0.016571124986512586,0.3661651611328125,6.961566925048828,13.483646392822266,
0.018136790982680395,0.3852081298828125,7.5908637046813965,15.373199462890625,
0.019673957984196022,0.402496337890625,8.124601364135742,12.469610214233398,
0.021151124994503334,0.422332763671875,8.667830467224121,12.152170181274414,
0.023138374992413446,0.44757080078125,9.285074234008789,10.742828369140625,
0.024604624981293455,0.46478271484375,9.621600151062012,12.38125991821289,
0.02622833297937177,0.4845428466796875,9.942577362060547,15.669197082519531,
0.027790374995674938,0.504425048828125,10.232282638549805,11.587448120117188,
0.029223290999652818,0.5222015380859375,10.480375289916992,12.855949401855469,
0.031211040972266346,0.5461273193359375,10.773926734924316,11.358221054077148,
0.032693999994080514,0.5654449462890625,10.996764183044434,11.380579948425293,
0.034505374991567805,0.584259033203125,11.207598686218262,15.718297958374023,
0.036216874985257164,0.610443115234375,11.440775871276855,12.335227966308594,
0.0376023749995511,0.6266021728515625,11.451048851013184,15.385059356689453,
0.039000040997052565,0.642333984375,11.426403999328613,12.134769439697266,
0.04040062497369945,0.6578521728515625,11.388346672058105,12.323005676269531,
0.04185704098199494,0.673736572265625,11.38479995727539,15.326895713806152,
0.043243749998509884,0.6909942626953125,11.429430961608887,11.947410583496094,
0.044651374977547675,0.706756591796875,11.440937042236328,12.016365051269531,
0.04693012498319149,0.723358154296875,11.487651824951172,15.607215881347656,
0.049149832979310304,0.7630157470703125,11.76671028137207,11.138973236083984,
0.05052312498446554,0.7807159423828125,11.861990928649902,11.110654830932617,
0.05192741597420536,0.79779052734375,11.930444717407227,11.245306015014648,
0.053785040974617004,0.8214874267578125,12.044159889221191,13.71061897277832,
0.055202415998792276,0.8411712646484375,12.239643096923828,9.765074729919434,
0.056622040981892496,0.8610076904296875,12.456106185913086,12.748682975769043,
0.05801695797708817,0.8812408447265625,12.680717468261719,9.775267601013184,
0.060138207976706326,0.91339111328125,13.079066276550293,11.563179016113281,
0.0618743329832796,0.935302734375,13.367439270019531,8.528242111206055,
0.06324624997796491,0.96197509765625,13.643733024597168,6.567366600036621,
0.06469354097498581,0.9830169677734375,13.798054695129395,6.960115432739258,
0.0662036249996163,1.005523681640625,13.980422973632812,5.741652488708496,
0.06782945798477158,1.0289764404296875,14.177878379821777,5.399567604064941,
0.06925258299452253,1.0537872314453125,14.308713912963867,5.008046627044678,
0.07065641597728245,1.0748291015625,14.38959789276123,3.974782705307007,
0.07203154099988751,1.0954742431640625,14.429582595825195,3.469625473022461,
0.07342824997613207,1.1153106689453125,14.399188995361328,3.3581159114837646,
0.07484637497691438,1.133697509765625,14.29422378540039,3.2296481132507324,
0.07623591599985957,1.152069091796875,14.124921798706055,2.6354551315307617,
0.07799108297331259,1.173370361328125,13.872686386108398,1.9947481155395508,
0.0794672499760054,1.1904754638671875,13.612624168395996,2.005272626876831,
0.08094333298504353,1.2070465087890625,13.342021942138672,0.8082362413406372,
0.0823622079915367,1.2232818603515625,13.074897766113281,0.5854649543762207,
0.0839679159980733,1.2410125732421875,12.78752613067627,0.33864840865135193,
0.08534266598871909,1.255828857421875,12.573500633239746,0.2422400712966919,
0.08671295800013468,1.2706451416015625,12.384218215942383,-0.27987945079803467,
0.08812699999543838,1.2865447998046875,12.236616134643555,-0.2570582628250122,
0.08951204098411836,1.30230712890625,12.159317016601562,-0.5834524035453796,
0.09093158299219795,1.3189544677734375,12.129890441894531,-1.093308687210083,
0.09236412498285063,1.3369598388671875,12.148224830627441,-1.1445348262786865,
0.09372195799369365,1.3542022705078125,12.19945240020752,-1.5147905349731445,
0.09512187499785796,1.372314453125,12.28304386138916,-2.263516664505005,
0.0964771659928374,1.3903045654296875,12.379454612731934,-2.2557318210601807,
0.09784424997633323,1.4083251953125,12.467750549316406,-2.19635009765625,
0.09991520797484554,1.425872802734375,12.507774353027344,-2.4340131282806396,
0.101494874979835,1.4481048583984375,11.94859504699707,-17.45838737487793,
0.10294662497472018,1.44635009765625,10.515057563781738,-18.171525955200195,
0.10433887498220429,1.444793701171875,9.163570404052734,-19.135055541992188,
0.10573304098215885,1.4457855224609375,8.21350383758545,-18.743471145629883,
0.10713954098173417,1.443450927734375,7.103211402893066,-18.284399032592773,
0.10848495797836222,1.44061279296875,6.097993850708008,-18.373332977294922,
0.10992483299924061,1.437774658203125,5.2001261711120605,-18.77762794494629,
0.11130212497664616,1.43328857421875,4.2441816329956055,-15.274293899536133,
0.11268016599933617,1.427764892578125,3.3254425525665283,-18.68109893798828,
0.1140436659916304,1.42132568359375,2.4429376125335693,-15.233392715454102,
0.11567770797410049,1.4116668701171875,1.3524125814437866,-17.521827697753906,
0.11772591597400606,1.4018707275390625,0.4151673913002014,-16.169063568115234,
0.11913570799515583,1.3855743408203125,-0.9246472716331482,-20.519329071044922,
0.12056266597937793,1.3722991943359375,-1.8857115507125854,-12.01669979095459,
0.12198145798174664,1.3571319580078125,-2.891507863998413,-14.357580184936523,
0.1233630409988109,1.33990478515625,-3.9388535022735596,-16.7388916015625,
0.12475870799971744,1.322113037109375,-4.935684680938721,-14.361266136169434,
0.12612816598266363,1.3022308349609375,-5.976506233215332,-14.347389221191406,
0.12758020797627978,1.2801055908203125,-7.062033176422119,-11.865472793579102,
0.1289783329993952,1.2569732666015625,-8.124563217163086,-12.039730072021484,
0.1303887499962002,1.2323455810546875,-9.187743186950684,-11.758712768554688,
0.13211416598642245,1.1998443603515625,-10.472450256347656,-12.001879692077637,
0.1335551249794662,1.1719207763671875,-11.506569862365723,-9.143871307373047,
0.13497816599556245,1.1434326171875,-12.499013900756836,-10.727476119995117,
0.13637670798925683,1.1134033203125,-13.468486785888672,-8.650224685668945,
0.13774658300098963,1.083648681640625,-14.380631446838379,-8.174132347106934,
0.13912224999512546,1.05316162109375,-15.24953842163086,-8.3566312789917,
0.14050270797451958,1.0213775634765625,-16.08664894104004,-6.25245475769043,
0.14195970798027702,0.989166259765625,-16.90772819519043,-6.235747337341309,
0.14337041598628275,0.953094482421875,-17.761903762817383,-7.4165849685668945,
0.14513495797291398,0.91046142578125,-18.65028953552246,-6.7727766036987305,
0.146547082986217,0.87677001953125,-19.256881713867188,-5.334465980529785,
0.14797291599097662,0.8424530029296875,-19.847084045410156,-4.528960227966309,
0.14937991599435918,0.806304931640625,-20.464563369750977,-5.688169002532959,
0.15076187497470528,0.7696685791015625,-21.049394607543945,-5.3049492835998535,
0.15219566598534584,0.735260009765625,-21.558589935302734,-4.3467254638671875,
0.15365058300085366,0.69573974609375,-22.073678970336914,-4.049914360046387,
0.1550622079812456,0.658966064453125,-22.54450798034668,-2.62919020652771,
0.1564576249802485,0.6219940185546875,-22.977306365966797,-2.2336816787719727,
0.1579200409760233,0.5850372314453125,-23.29872703552246,-1.6893738508224487,
0.15926420799223706,0.551116943359375,-23.400634765625,-1.9940540790557861,
0.16073345797485672,0.5201873779296875,-23.187131881713867,-2.458042621612549,
0.16214141598902643,0.495361328125,-22.508831024169922,-3.009469509124756,
0.16350870797759853,0.4812469482421875,-21.10477066040039,0.15844067931175232,
0.16500079099205323,0.479095458984375,-18.903162002563477,2.8328351974487305,
0.16661058299359865,0.482269287109375,-16.34032440185547,-0.2845855951309204,
0.16803545798757114,0.4851837158203125,-14.0714693069458,-1.382958173751831,
0.16960787499556318,0.488037109375,-12.264798164367676,-2.013904571533203,
0.17117758298991248,0.4908447265625,-10.484871864318848,-2.4868874549865723,
0.17264279097435065,0.4896087646484375,-9.281560897827148,-1.3736398220062256,
0.17414287498104386,0.482025146484375,-8.829575538635254,1.9108113050460815,
0.17563470799359493,0.4651641845703125,-9.053983688354492,2.613377094268799,
0.1770974999817554,0.446502685546875,-9.53372573852539,0.44020697474479675,
0.1787293329834938,0.42559814453125,-9.98249340057373,-0.2980023920536041,
0.18022833298891783,0.4056396484375,-10.325723648071289,0.06207345426082611,
0.18162137499894015,0.386260986328125,-10.665101051330566,0.5365563631057739,
0.18299683299846947,0.36767578125,-10.986793518066406,0.412862628698349,
0.18434183299541473,0.3491973876953125,-11.264551162719727,0.3087376654148102,
0.1857331659994088,0.3312225341796875,-11.470833778381348,0.6287285089492798,
0.18711870798142627,0.313751220703125,-11.584186553955078,0.442869633436203,
0.18850970797939226,0.297943115234375,-11.548357963562012,0.17062972486019135,
0.18992545799119398,0.2845611572265625,-11.354132652282715,0.11551063507795334,
0.1913133329944685,0.273956298828125,-10.89548110961914,15.300631523132324,
0.19269795797299594,0.2740478515625,-9.65712833404541,17.808013916015625,
0.19415354100055993,0.279510498046875,-8.114680290222168,18.03817367553711,
0.19555124998441897,0.28167724609375,-7.011931896209717,18.181804656982422,
0.19698149999021553,0.2855377197265625,-5.929812431335449,18.247426986694336,
0.19836849998682737,0.291473388671875,-4.775815963745117,16.85599136352539,
0.199796165979933,0.2969512939453125,-3.7900516986846924,18.658634185791016,
0.2011472909944132,0.3029632568359375,-2.8904693126678467,19.963584899902344,
0.20251204099622555,0.3101654052734375,-1.996156096458435,15.331121444702148,
0.20398070800001733,0.318115234375,-1.138789415359497,17.254180908203125,
0.2055425829894375,0.3289642333984375,-0.12726278603076935,16.530075073242188,
0.20890616599353962,0.3382568359375,0.6327983140945435,16.060941696166992,
0.21420095799840055,0.4053955078125,4.687164306640625,14.306463241577148,
0.2189152499777265,0.422088623046875,5.5004682540893555,13.241805076599121,
0.22218487499048933,0.5105133056640625,8.93790340423584,11.28683090209961,
0.22389162497711368,0.531005859375,9.577221870422363,14.253000259399414,
0.22989845799747854,0.6210479736328125,12.006919860839844,12.805747032165527,
0.2313033329846803,0.6538238525390625,12.626639366149902,9.777175903320312,
0.23285229099565186,0.6762237548828125,13.00622272491455,12.044950485229492,
0.23421791597502306,0.7010040283203125,13.390965461730957,9.505743026733398,
0.2355856659996789,0.7230682373046875,13.692471504211426,13.016631126403809,
0.23713883297750726,0.7481536865234375,14.01845932006836,9.118368148803711,
0.23920612499932759,0.7827301025390625,14.41788387298584,7.4757795333862305,
0.2405618329939898,0.8048858642578125,14.618634223937988,9.195890426635742,
0.24212195799918845,0.8304443359375,14.826859474182129,7.032735347747803,
0.24387899998691864,0.8531494140625,15.069902420043945,8.679424285888672,
0.2454533749842085,0.8885955810546875,15.480493545532227,7.96919059753418,
0.24699041599524207,0.913818359375,15.76518440246582,9.929174423217773,
0.24835283297579736,0.94110107421875,16.05548667907715,7.454329490661621,
0.24973379098810256,0.9654998779296875,16.2518253326416,5.613744258880615,
0.2511392909800634,0.9896697998046875,16.365062713623047,6.633468151092529,
0.2554492909985129,1.0567626953125,16.051210403442383,6.423473358154297,
0.25683891598600894,1.0731658935546875,15.56251049041748,6.48905086517334,
0.2599009579862468,1.085662841796875,14.855488777160645,6.933315277099609,
0.2621949579915963,1.0920257568359375,10.96017837524414,4.361130714416504,
0.2642060409998521,1.074462890625,7.835641384124756,3.098848342895508,
0.2655912499758415,1.0554656982421875,5.431384086608887,3.4105587005615234,
0.26700641599018127,1.03253173828125,2.9819910526275635,5.523710250854492,
0.268648375000339,1.000946044921875,0.08058925718069077,5.447121620178223,
0.2700304159952793,0.9711151123046875,-2.3223414421081543,5.907976150512695,
0.27144133299589157,0.9406585693359375,-4.499586582183838,8.847457885742188,
0.2728164579893928,0.9156036376953125,-5.996134281158447,9.606317520141602,
0.27428004099056125,0.9039764404296875,-6.203256607055664,7.455338954925537,
0.2756989999907091,0.919036865234375,-4.269093036651611,18.494892120361328,
0.2771647499757819,0.938140869140625,-2.260240077972412,16.973190307617188,
0.27855595797882415,0.9474029541015625,-1.2668662071228027,16.8708553314209,
0.27999941597227007,0.9611663818359375,-0.013430467806756496,19.763734817504883,
0.28140154099673964,0.979644775390625,1.465744137763977,15.526613235473633,
0.2827839159872383,0.995513916015625,2.5767898559570312,15.138521194458008,
0.2841805829957593,1.01239013671875,3.641716241836548,19.189167022705078,
0.2855997079750523,1.03179931640625,4.777188777923584,13.455260276794434,
0.2869814579898957,1.0513763427734375,5.810752868652344,11.622091293334961,
0.28846224999870174,1.0708770751953125,6.759581089019775,9.090410232543945,
0.2898548329831101,1.0932159423828125,7.7148118019104,7.212096214294434,
0.29142366599990055,1.1171417236328125,8.656515121459961,6.188697814941406,
0.29281862499192357,1.13818359375,9.346205711364746,5.690789222717285,
0.294216582988156,1.1570281982421875,9.833100318908691,5.08297061920166,
0.29562320798868313,1.173919677734375,10.080648422241211,5.311300277709961,
0.2970427499967627,1.187744140625,10.027861595153809,5.489022731781006,
0.29841337498510256,1.1970062255859375,9.668160438537598,6.0374064445495605,
0.2997799579752609,1.2016143798828125,8.973755836486816,5.906159400939941,
0.3011641659832094,1.2008514404296875,7.901786804199219,5.516360759735107,
0.3025316249986645,1.194488525390625,6.520162105560303,4.9990081787109375,
0.30409249998047017,1.183441162109375,4.916445255279541,4.874382495880127,
0.30550520797260106,1.1664886474609375,2.9415149688720703,5.462138652801514,
0.3070016249839682,1.149169921875,1.2170754671096802,6.821229457855225,
0.30839412499335594,1.13067626953125,-0.402660071849823,9.008843421936035,
0.30980904097668827,1.1143646240234375,-1.6862363815307617,10.45150375366211,
0.31120587498298846,1.1038818359375,-2.3064897060394287,7.306801795959473,
0.313211707980372,1.11651611328125,-0.9183114171028137,10.445316314697266,
0.3146409159817267,1.135040283203125,0.6647694110870361,11.381345748901367,
0.31603591598104686,1.146820068359375,1.53492271900177,10.267313957214355,
0.3174059579905588,1.160797119140625,2.48539137840271,7.309550762176514,
0.3188123329891823,1.17889404296875,3.659132957458496,7.082581520080566,
0.3202143749804236,1.197357177734375,4.7500104904174805,6.5964765548706055,
0.3216163329780102,1.2158355712890625,5.66358757019043,4.857481956481934,
0.322985915991012,1.2346038818359375,6.549607753753662,3.7090163230895996,
0.32438783298130147,1.25482177734375,7.435050964355469,2.547839403152466,
0.3258485829865094,1.2751617431640625,8.2475004196167,2.1419057846069336,
0.3281217499752529,1.3079833984375,9.277745246887207,1.049098014831543,
0.32958633298403583,1.3274688720703125,9.74677562713623,0.8464717864990234,
0.331005207990529,1.3447113037109375,10.03329849243164,0.49013590812683105,
0.332382582972059,1.359893798828125,10.121895790100098,1.0341260433197021,
0.33379441598663107,1.3721466064453125,9.965137481689453,1.3601007461547852,
0.33531845797551796,1.381500244140625,9.489745140075684,1.4326362609863281,
0.3368134999764152,1.38604736328125,8.713221549987793,1.1761369705200195,
0.338284624973312,1.38677978515625,7.748546600341797,1.0741580724716187,
0.33966220798902214,1.3857269287109375,6.794479846954346,1.0315299034118652,
0.34104045797721483,1.3848876953125,5.982471466064453,0.9971737861633301,
0.34246487499331124,1.3854827880859375,5.345747947692871,0.655007004737854,
0.34385616600047797,1.3882904052734375,4.9733686447143555,0.24616441130638123,
0.3453752499772236,1.3936767578125,4.822832107543945,0.3353146016597748,
0.3467450409953017,1.4008026123046875,4.841053485870361,0.4333442151546478,
0.34814199997344986,1.4086151123046875,4.9245171546936035,0.7560533881187439,
0.3495449579786509,1.4164581298828125,4.999261856079102,1.1896238327026367,
0.35093341598985717,1.4228363037109375,4.953212738037109,-13.517986297607422,
0.35236674998304807,1.4184722900390625,4.016683578491211,-11.20608139038086,
0.35376995799015276,1.40521240234375,2.5035719871520996,-16.957836151123047,
0.35526229097740725,1.3946075439453125,1.3618719577789307,-17.567607879638672,
0.3566989579994697,1.384002685546875,0.35423457622528076,-20.972637176513672,
0.3581434999941848,1.369537353515625,-0.8458027243614197,-14.447498321533203,
0.35964558299747296,1.35406494140625,-1.973764181137085,-15.017976760864258,
0.3615698749781586,1.339202880859375,-2.9444258213043213,-18.27773666381836,
0.36297749998630024,1.3162078857421875,-4.302155017852783,-14.069084167480469,
0.3643932079721708,1.2987823486328125,-5.217072486877441,-16.331750869750977,
0.3658150829724036,1.280303955078125,-6.11240816116333,-12.443209648132324,
0.36750912497518584,1.2559661865234375,-7.240384578704834,-13.320222854614258,
0.3689395409892313,1.23455810546875,-8.103113174438477,-16.455562591552734,
0.3703797909838613,1.2128753662109375,-8.88606071472168,-10.932500839233398,
0.3717598329822067,1.19158935546875,-9.639479637145996,-12.545623779296875,
0.37313620798522606,1.1682891845703125,-10.408644676208496,-10.097747802734375,
0.3745617079839576,1.1447601318359375,-11.126749992370605,-12.13070297241211,
0.37598549999529496,1.119964599609375,-11.803884506225586,-9.789113998413086,
0.37735299998894334,1.0952301025390625,-12.496162414550781,-11.697465896606445,
0.3788234999810811,1.0685577392578125,-13.195478439331055,-9.404519081115723,
0.3802214999741409,1.0426788330078125,-13.752694129943848,-9.003097534179688,
0.3816482079855632,1.016571044921875,-14.303401947021484,-8.168863296508789,
0.38387583298026584,0.985595703125,-15.025009155273438,-7.339862823486328,
0.38529087498318404,0.9427947998046875,-15.859640121459961,-6.898299694061279,
0.3868382499786094,0.912017822265625,-16.3741512298584,-9.131747245788574,
0.38826208299724385,0.8833160400390625,-16.79240608215332,-7.005357265472412,
0.38972866599215195,0.8546600341796875,-17.159114837646484,-8.869206428527832,
0.39116549998288974,0.82421875,-17.58172607421875,-7.224478721618652,
0.39259737500105985,0.7930145263671875,-18.015365600585938,-6.093910217285156,
0.3939849579764996,0.76300048828125,-18.39971351623535,-7.972888946533203,
0.39615591597976163,0.7175750732421875,-18.877216339111328,-5.497730255126953,
0.39829074998851866,0.675567626953125,-19.216495513916016,-3.950326919555664,
0.4000079999968875,0.63623046875,-19.48166275024414,-3.4221389293670654,
0.4023026659851894,0.5945892333984375,-19.432117462158203,-2.9409170150756836,
0.40372895798645914,0.5678558349609375,-19.13381004333496,-2.845658302307129,
0.4052444159751758,0.5467071533203125,-18.577524185180664,-3.5771665573120117,
