time,position,velocity,q_current,command_position
0.0018412079953122884,0.234283447265625,-0.00044091365998610854,1.3931870460510254,
0.004579833010211587,0.236724853515625,0.200397789478302,6.136607646942139,
0.006734416994731873,0.258331298828125,1.797786831855774,7.407398223876953,
0.008217416994739324,0.2686920166015625,2.414264440536499,7.7000579833984375,
0.009813208016566932,0.2820281982421875,3.1628787517547607,6.671494483947754,
0.011424917000113055,0.2945098876953125,3.8076353073120117,7.938387870788574,
0.01282362500205636,0.3074493408203125,4.349902153015137,8.247891426086426,
0.01487412501592189,0.3242340087890625,4.971960067749023,7.82723331451416,
0.01629495801171288,0.3368377685546875,5.409605979919434,7.802881240844727,
0.017816375009715557,0.3497161865234375,5.774877071380615,7.7774553298950195,
0.019196542009012774,0.3611297607421875,6.041712760925293,7.740079402923584,
0.021011625009123236,0.372955322265625,6.311629772186279,7.849008560180664,
0.022815958014689386,0.3926544189453125,6.745407581329346,7.727567195892334,
0.024180417007301003,0.404388427734375,6.9470906257629395,7.4741106033325195,
0.025924625020707026,0.4194183349609375,7.164791584014893,7.405078411102295,
0.027315333019942045,0.4312896728515625,7.331789016723633,7.499217987060547,
0.028750833007507026,0.4433746337890625,7.456796169281006,7.92458438873291,
0.030394667002838105,0.4542388916015625,7.489766597747803,7.681527614593506,
0.03182195799308829,0.466339111328125,7.458861351013184,7.8466339111328125,
0.033218458003830165,0.4759368896484375,7.390824794769287,8.161444664001465,
0.03555683299782686,0.485198974609375,7.283596038818359,8.069782257080078,
0.03697695801383816,0.5003204345703125,7.141590595245361,7.403775691986084,
0.03839687499566935,0.5106964111328125,7.154539585113525,7.585887432098389,
0.03978245801408775,0.5214996337890625,7.218253135681152,7.459835052490234,
0.041163167014019564,0.5319366455078125,7.26239538192749,7.74721622467041,
0.04285425000125542,0.5448150634765625,7.305171489715576,7.4752936363220215,
0.04428112501045689,0.5562591552734375,7.383453845977783,7.610125541687012,
0.045992125000339,0.56988525390625,7.508291721343994,7.588086128234863,
0.04743804200552404,0.583099365234375,7.643902778625488,7.56696081161499,
0.04880941699957475,0.5952606201171875,7.781782150268555,7.417006969451904,
0.050211167021188885,0.60760498046875,7.897860527038574,7.803086280822754,
0.05185220800922252,0.6218719482421875,8.006178855895996,7.653346061706543,
0.05324287500116043,0.6345977783203125,8.106742858886719,7.553075790405273,
0.05464066701824777,0.6467132568359375,8.19010066986084,7.435628890991211,
0.0560527500056196,0.6596832275390625,8.310723304748535,6.932350158691406,
0.058543499995721504,0.6783294677734375,8.5806303024292,6.833470821380615,
0.06084158300654963,0.7096710205078125,9.025200843811035,6.846715450286865,
0.062381249997997656,0.7274627685546875,9.316039085388184,6.623420238494873,
0.0638125000114087,0.7440643310546875,9.575514793395996,6.764229774475098,
0.06520974999875762,0.7604217529296875,9.812663078308105,6.455121994018555,
0.06662150000920519,0.776763916015625,10.048262596130371,6.647984504699707,
0.06910033299936913,0.8038177490234375,10.406005859375,6.4390459060668945,
0.07050608299323358,0.8251953125,10.698246002197266,6.557565689086914,
0.07186700002057478,0.8430633544921875,10.96640682220459,6.387127876281738,
0.07325441701686941,0.861419677734375,11.231165885925293,6.390748500823975,
0.07465033300104551,0.8805999755859375,11.507938385009766,6.395310401916504,
0.07602649999898858,0.8999481201171875,11.767927169799805,6.367045879364014,
0.07741237501613796,0.9197540283203125,12.034013748168945,6.300300598144531,
0.07877287501469254,0.9392547607421875,12.279448509216309,6.514216899871826,
0.08017020800616592,0.959075927734375,12.524066925048828,5.45875883102417,
0.08162229199660942,0.97979736328125,12.779972076416016,6.299985885620117,
0.08302566700149328,1.002105712890625,13.064971923828125,6.230548858642578,
0.08442983301938511,1.023529052734375,13.315570831298828,6.355443477630615,
0.08585141701041721,1.04522705078125,13.524347305297852,6.160799026489258,
0.08721408300334588,1.066436767578125,13.744062423706055,5.8527374267578125,
0.08872179200989194,1.0892791748046875,14.03306770324707,5.657993316650391,
0.09011495800223202,1.1139984130859375,14.32534408569336,6.309369087219238,
0.09149137500207871,1.136138916015625,14.535752296447754,5.761552333831787,
0.09291983299772255,1.16009521484375,14.742337226867676,4.292072772979736,
0.09431420799228363,1.18194580078125,14.877662658691406,3.851963996887207,
0.09583850001217797,1.20458984375,14.862383842468262,3.774413824081421,
0.0972469580010511,1.223052978515625,14.673616409301758,3.277557373046875,
0.09866916699684225,1.2389373779296875,14.296955108642578,3.3596487045288086,
0.10006275001796894,1.2519989013671875,13.700610160827637,3.360058546066284,
0.1014447080087848,1.26104736328125,12.885773658752441,3.284149169921875,
0.10279937501763925,1.26617431640625,11.881576538085938,2.884450912475586,
0.10415195801761001,1.268341064453125,10.78039264678955,2.520258665084839,
0.105827124993084,1.2689971923828125,9.407925605773926,2.3816018104553223,
0.10742479201871902,1.26983642578125,8.421463966369629,1.9422158002853394,
0.10879404199658893,1.2734222412109375,7.638887882232666,0.932086169719696,
0.11015987501014024,1.280364990234375,7.362342834472656,-0.6063545942306519,
0.11152191701694392,1.2916107177734375,7.459908485412598,-0.8332532644271851,
0.1128858330193907,1.3057708740234375,7.779548645019531,-0.22170832753181458,
0.11427200000616722,1.3208465576171875,8.136933326721191,0.2367973029613495,
0.11578945801011287,1.338348388671875,8.537342071533203,0.1543414145708084,
0.11719120800262317,1.355255126953125,8.9351167678833,-0.359724760055542,
0.11862058300175704,1.3725738525390625,9.345250129699707,-0.756098210811615,
0.12013450000085868,1.3912811279296875,9.771039962768555,-0.7264928817749023,
0.12154262501280755,1.411285400390625,10.169639587402344,-0.8635839223861694,
0.12328537501161918,1.4331512451171875,10.475729942321777,-0.9558501243591309,
0.12465537499519996,1.4479827880859375,10.51438045501709,-7.2173919677734375,
0.126616167020984,1.4528961181640625,9.281025886535645,-8.138063430786133,
0.12800254201283678,1.44775390625,7.805263042449951,-9.675324440002441,
0.1293577080068644,1.4452362060546875,6.749422073364258,-9.233739852905273,
0.13075883299461566,1.442596435546875,5.797052383422852,-9.332427978515625,
0.13212704201578163,1.4375762939453125,4.743039131164551,-8.819780349731445,
0.13350179200642742,1.432159423828125,3.788792371749878,-9.044675827026367,
0.1349230420019012,1.42633056640625,2.8871593475341797,-8.954601287841797,
0.1363628749968484,1.419830322265625,2.048171043395996,-8.861143112182617,
0.1377870830183383,1.4121551513671875,1.19524347782135,-8.688711166381836,
0.13919991700095125,1.40411376953125,0.4135882258415222,-8.690954208374023,
0.14063154201721773,1.3955535888671875,-0.31817391514778137,-8.381091117858887,
0.14265799999702722,1.3819427490234375,-1.3319926261901855,-7.887809753417969,
0.14403820800362155,1.3706207275390625,-2.086925506591797,-7.172658920288086,
0.14570345799438655,1.354949951171875,-3.0477280616760254,-6.933951377868652,
0.14707933299359865,1.3411865234375,-3.8278274536132812,-6.3894267082214355,
0.1484340000024531,1.32598876953125,-4.627966403961182,-6.521838665008545,
0.14980708301300183,1.3094635009765625,-5.448285102844238,-6.532729625701904,
0.15127141700941138,1.290740966796875,-6.322052001953125,-6.3844709396362305,
0.15282891699462198,1.2689208984375,-7.271289348602295,-6.296782970428467,
0.1543701670016162,1.2451019287109375,-8.261409759521484,-5.847592353820801,
0.15579641700605862,1.2223358154296875,-9.135903358459473,-6.1225738525390625,
0.15716012500342913,1.1998291015625,-9.940827369689941,-4.980457305908203,
0.1586347919947002,1.1753082275390625,-10.791044235229492,-5.675189971923828,
0.16008274999330752,1.1470489501953125,-11.72500228881836,-5.786084175109863,
0.16154758300399408,1.1215057373046875,-12.489408493041992,-6.129692077636719,
0.16308912500971928,1.0897979736328125,-13.388073921203613,-5.919225215911865,
0.1644517079985235,1.062469482421875,-14.112753868103027,-6.198144912719727,
0.16586779200588353,1.0341033935546875,-14.802886962890625,-5.5689005851745605,
0.167292666999856,1.0030670166015625,-15.54836654663086,-5.871506690979004,
0.16869795799721032,0.973175048828125,-16.242155075073242,-6.18917989730835,
0.17066908301785588,0.9298858642578125,-17.12999153137207,-5.535759925842285,
0.17215104200295173,0.897003173828125,-17.70297622680664,-3.8950209617614746,
0.17368533299304545,0.864410400390625,-18.18549346923828,-5.45090389251709,
0.17506570799741894,0.832855224609375,-18.624345779418945,-5.573187828063965,
0.17644845801987685,0.801605224609375,-19.038976669311523,-4.610289573669434,
0.17782125002122484,0.770843505859375,-19.420146942138672,-5.817680358886719,
0.17920870799571276,0.7388916015625,-19.80207633972168,-4.913434028625488,
0.18067820800933987,0.707366943359375,-20.106115341186523,-4.693910598754883,
0.18208404199685901,0.6756591796875,-20.33667755126953,-5.092164039611816,
0.18354291701689363,0.6440582275390625,-20.53327751159668,-3.838026762008667,
0.18600250000599772,0.5946807861328125,-20.586645126342773,-3.2404189109802246,
0.18746174999978393,0.565643310546875,-20.382848739624023,-3.1652991771698,
0.18884449999313802,0.541107177734375,-19.952165603637695,-3.7914538383483887,
0.190237500006333,0.5218963623046875,-19.249710083007812,-3.6960372924804688,
0.1918171250144951,0.5071563720703125,-18.015703201293945,-3.148369550704956,
0.19354249999742024,0.501251220703125,-16.461977005004883,-1.490394949913025,
0.1951934170210734,0.5023193359375,-13.797375679016113,-1.4982364177703857,
0.1966268329997547,0.5057220458984375,-11.977556228637695,-2.3543810844421387,
0.19802500001969747,0.50946044921875,-10.304207801818848,-3.5044660568237305,
0.19938566701603122,0.512786865234375,-8.909443855285645,-4.250178813934326,
0.20080983301158994,0.5139923095703125,-7.794252872467041,-3.588320732116699,
0.20237737501156516,0.5088043212890625,-7.243342876434326,0.1123226210474968,
0.20382900000549853,0.495391845703125,-7.491697311401367,1.092763066291809,
0.20525425000232644,0.476165771484375,-8.173140525817871,-0.11753976345062256,
0.20667970800423063,0.456756591796875,-8.81129264831543,-1.768480658531189,
0.20807424999657087,0.4375457763671875,-9.33750057220459,-1.2166657447814941,
0.20942037500208244,0.4184112548828125,-9.849325180053711,-0.3556579053401947,
0.210817582992604,0.398162841796875,-10.394515037536621,0.03633307293057442,
0.21225687500555068,0.3761749267578125,-10.962864875793457,-0.26534193754196167,
0.21366362500702962,0.354095458984375,-11.470785140991211,0.01954817958176136,
0.2153230420080945,0.3330230712890625,-11.872115135192871,0.4386307895183563,
0.2175503330072388,0.308013916015625,-12.188447952270508,0.773491382598877,
0.2190896249958314,0.280548095703125,-12.167898178100586,0.46949028968811035,
0.2204889999993611,0.267608642578125,-11.837142944335938,-0.4537484049797058,
0.2219751670199912,0.2591552734375,-11.212944984436035,8.48814582824707,
0.22342875000322238,0.2588958740234375,-9.827595710754395,8.548685073852539,
0.22482562501681969,0.26239013671875,-8.446405410766602,9.67259407043457,
0.22673087500152178,0.2653656005859375,-6.953474521636963,9.413919448852539,
0.22836729200207628,0.2696685791015625,-5.692755222320557,9.328981399536133,
0.2297722920193337,0.2737884521484375,-4.737586975097656,9.141497611999512,
0.2311733750102576,0.2778778076171875,-3.8680226802825928,9.45757007598877,
0.23356670801877044,0.2821197509765625,-3.0931718349456787,9.33730697631836,
0.23495770801673643,0.290069580078125,-1.91225004196167,9.208394050598145,
0.2378401670139283,0.3005218505859375,-0.7062028050422668,8.75866985321045,
0.23956679200637154,0.3066253662109375,-0.13621987402439117,8.836297035217285,
0.2413330420095008,0.314727783203125,0.5237986445426941,8.643377304077148,
0.24281391699332744,0.325164794921875,1.2682702541351318,8.283247947692871,
0.24496491701574996,0.3383331298828125,2.0830864906311035,7.881779670715332,
0.2463587920065038,0.3478240966796875,2.61068058013916,7.415312767028809,
0.2477530000032857,0.358612060546875,3.182283639907837,7.252883434295654,
0.24917929200455546,0.3712005615234375,3.82537841796875,7.037396430969238,
0.2513029169931542,0.385101318359375,4.488109111785889,6.950311183929443,
0.25271045800764114,0.4054412841796875,5.352999210357666,7.148017406463623,
0.25411312500364147,0.4204559326171875,5.956099987030029,6.911540985107422,
0.25562775001162663,0.436798095703125,6.57613468170166,7.638959884643555,
0.2569976670201868,0.4522247314453125,7.044917106628418,7.5646586418151855,
0.2584150000184309,0.4671783447265625,7.452356815338135,7.6725921630859375,
0.25981275000958703,0.4821319580078125,7.793549060821533,7.5845489501953125,
0.2619733330211602,0.5024566650390625,8.142257690429688,7.101443290710449,
0.26368287499644794,0.5202484130859375,8.369272232055664,7.516613006591797,
0.26553004200104624,0.53765869140625,8.484774589538574,7.098947048187256,
0.2669264170108363,0.5494232177734375,8.520689010620117,7.057672500610352,
0.2685508750146255,0.5634918212890625,8.532271385192871,7.156088829040527,
0.2699618750193622,0.575714111328125,8.531182289123535,7.13385009765625,
0.27137416700134054,0.5882110595703125,8.576005935668945,7.167375087738037,
0.2728664580208715,0.6020050048828125,8.67414665222168,7.550254821777344,
0.27426700000069104,0.6154022216796875,8.75090503692627,7.672654628753662,
0.27582900002016686,0.6296844482421875,8.7975492477417,7.652880668640137,
0.2772432920173742,0.6423492431640625,8.824090003967285,7.17210578918457,
0.2786893750017043,0.655426025390625,8.858293533325195,7.103377819061279,
0.2801289579947479,0.6697998046875,8.969873428344727,6.458232402801514,
0.28188816699548624,0.6884765625,9.194281578063965,6.313879013061523,
0.2834973330027424,0.7033538818359375,9.355671882629395,6.861595153808594,
0.2849435420066584,0.7215728759765625,9.56380844116211,6.748623847961426,
0.2868674170167651,0.7430877685546875,9.827143669128418,6.706777572631836,
0.28955029201461,0.7663726806640625,10.137520790100098,6.38875675201416,
0.2909644579922315,0.7918701171875,10.438567161560059,6.652043342590332,
0.29255687500699423,0.8095855712890625,10.631251335144043,6.1550822257995605,
0.2939844170177821,0.8293304443359375,10.877906799316406,6.1941022872924805,
0.2955077920050826,0.849212646484375,11.103009223937988,6.7627272605896,
0.29785933301900513,0.8791351318359375,11.414809226989746,6.4171881675720215,
0.29925416701007634,0.897857666015625,11.634834289550781,6.469066143035889,
0.30082091700751334,0.919708251953125,11.924036979675293,6.043929576873779,
0.30644016701262444,0.939453125,12.167741775512695,6.498568534851074,
0.3083736250118818,1.022613525390625,13.17473030090332,6.257287502288818,
0.30985333301941864,1.0526275634765625,13.460837364196777,5.857263088226318,
0.3119128330145031,1.0858306884765625,13.884586334228516,5.556283473968506,
0.31343191702035256,1.1113128662109375,14.21783447265625,6.426093578338623,
0.3148336250160355,1.1340789794921875,14.446471214294434,5.886833190917969,
0.31623237501480617,1.1570587158203125,14.67367935180664,4.514512062072754,
0.317706250003539,1.180023193359375,14.86469554901123,4.055014133453369,
0.31934812502004206,1.206573486328125,14.922072410583496,3.1673574447631836,
0.32081662499695085,1.2269287109375,14.798155784606934,2.9045093059539795,
0.32232599999406375,1.2448883056640625,14.496463775634766,2.7238640785217285,
0.3238432920188643,1.2608642578125,13.957708358764648,2.817645788192749,
0.32547887502005324,1.272979736328125,13.105045318603516,2.8097219467163086,
0.3268589579965919,1.2794342041015625,12.15060043334961,2.651810884475708,
0.328879542008508,1.28436279296875,10.607943534851074,1.9036821126937866,
0.33050670800730586,1.287811279296875,9.529943466186523,0.9580468535423279,
0.3328826249926351,1.29718017578125,8.52391242980957,-0.2757444679737091,
0.3345988749933895,1.30792236328125,8.296618461608887,-0.5938552021980286,
0.3398642920074053,1.3631439208984375,9.060449600219727,-0.7863963842391968,
0.3412830830202438,1.38043212890625,9.404353141784668,-1.172996997833252,
0.34293762501329184,1.3984222412109375,9.766319274902344,-1.3075917959213257,
0.34463812501053326,1.4222259521484375,10.17645263671875,-0.9372422099113464,
0.34605304201249965,1.4393310546875,10.378214836120605,-1.2615810632705688,
0.3478718330152333,1.4576416015625,10.312132835388184,-6.941855430603027,
0.3493055830185767,1.4600982666015625,9.288809776306152,-7.9518022537231445,
0.35072924999985844,1.4557952880859375,7.902101039886475,-9.478570938110352,
0.3523766250000335,1.452880859375,6.630166530609131,-9.375986099243164,
0.3538556669955142,1.4496917724609375,5.61250638961792,-9.389969825744629,
0.35583904199302197,1.4429473876953125,4.20835542678833,-9.208677291870117,
0.357900958013488,1.4359283447265625,2.9824492931365967,-8.924955368041992,
0.3608485420118086,1.42181396484375,1.2504652738571167,-8.487405776977539,
0.3622702080174349,1.4139251708984375,0.4759577810764313,-8.418929100036621,
0.36370291700586677,1.4052886962890625,-0.2706920802593231,-8.110754013061523,
0.36540491701452993,1.3935699462890625,-1.1625338792800903,-7.898484230041504,
0.36683075001928955,1.38299560546875,-1.8754322528839111,-7.744723796844482,
0.36897462501656264,1.36553955078125,-2.9705584049224854,-6.740627288818359,
0.3708412080013659,1.344482421875,-4.138999938964844,-6.383671760559082,
0.3728434579970781,1.320343017578125,-5.368923664093018,-6.515838623046875,
0.37445333300274797,1.3023681640625,-6.2233099937438965,-6.521461486816406,
0.3764294169959612,1.2793731689453125,-7.242617607116699,-6.260127067565918,
0.37784837500657886,1.248687744140625,-8.512072563171387,-5.883544445037842,
0.379273208003724,1.2258453369140625,-9.387792587280273,-6.0905070304870605,
0.3809605830174405,1.197601318359375,-10.387401580810547,-4.845423698425293,
0.3823972920072265,1.1711578369140625,-11.283517837524414,-5.6751508712768555,
0.3838417500082869,1.1435394287109375,-12.187207221984863,-5.253387451171875,
0.3858702080033254,1.105224609375,-13.262760162353516,-6.282472133636475,
0.3873326670145616,1.075286865234375,-14.06449031829834,-5.834568023681641,
0.3888565420056693,1.0441741943359375,-14.82530689239502,-7.490748405456543,
0.39032754200161435,1.0134735107421875,-15.542237281799316,-5.376105785369873,
0.39172879201942123,0.982635498046875,-16.2709903717041,-5.718245506286621,
0.39346791701973416,0.950775146484375,-16.953418731689453,-5.056506156921387,
0.39486720800050534,0.9122772216796875,-17.673694610595703,-6.251580715179443,
0.39626645800308324,0.8813323974609375,-18.169950485229492,-5.1457295417785645,
0.3977004580083303,0.8502197265625,-18.6259765625,-4.380784511566162,
0.39910520799458027,0.8178253173828125,-19.081035614013672,-5.530195236206055,
0.4011149170110002,0.778411865234375,-19.582475662231445,-5.823092937469482,
0.4025267499964684,0.7393951416015625,-20.035776138305664,-4.981853485107422,
0.40394587500486523,0.7076568603515625,-20.331090927124023,-4.430732727050781,
0.40534720799769275,0.6764984130859375,-20.54622459411621,-4.463244915008545,
0.40686920800362714,0.641815185546875,-20.743919372558594,-3.4711480140686035,
0.4083240420150105,0.6120147705078125,-20.80341148376465,-3.1444175243377686,
0.4098173330130521,0.5813446044921875,-20.703771591186523,-2.9792470932006836,
0.4112224169948604,0.556243896484375,-20.3900146484375,-4.251372337341309,
0.4126885420118924,0.535675048828125,-19.745939254760742,-4.394595146179199,
