time,position,velocity,q_current,command_position
0.0013752919912803918,0.7430419921875,-0.007911997847259045,1.8298983573913574,
0.002784292009891942,0.743743896484375,0.37603816390037537,13.85925579071045,
0.004177916998742148,0.7469482421875,1.5740344524383545,11.97965145111084,
0.005570999986957759,0.7522430419921875,2.9344379901885986,10.06566333770752,
0.0069407080009114,0.759124755859375,4.20701789855957,9.5390625,
0.00832649998483248,0.7671356201171875,5.105066299438477,8.98092269897461,
0.009740207984577864,0.7764434814453125,6.05376672744751,8.296000480651855,
0.011122916999738663,0.7865753173828125,6.794627666473389,7.984570503234863,
0.012511582986917347,0.797821044921875,7.530519962310791,8.64995002746582,
0.013872666982933879,0.8089599609375,7.909106254577637,7.472349166870117,
0.015236917010042816,0.820404052734375,8.184800148010254,8.10328197479248,
0.01659983300487511,0.83233642578125,8.501664161682129,8.102595329284668,
0.017997207993175834,0.8448333740234375,8.742143630981445,7.710799694061279,
0.019367583008715883,0.856689453125,8.690873146057129,7.747582912445068,
0.020741332991747186,0.86834716796875,8.610642433166504,8.084165573120117,
0.022110416990472004,0.880157470703125,8.632060050964355,7.947333335876465,
0.023557207983685657,0.8919677734375,8.49574089050293,8.183286666870117,
0.024976749991765246,0.903717041015625,8.185505867004395,8.043530464172363,
0.02634679200127721,0.914306640625,7.801692485809326,8.671772956848145,
0.02773983299266547,0.924835205078125,7.635694980621338,8.637309074401855,
0.02917091699782759,0.9354400634765625,7.485535144805908,8.653105735778809,
0.03054004200384952,0.9449310302734375,7.149413108825684,8.798033714294434,
0.03190187498694286,0.9541778564453125,6.909762382507324,9.022377014160156,
0.033280333009315655,0.9634857177734375,6.843518257141113,9.337498664855957,
0.034700166987022385,0.9729766845703125,6.813680648803711,9.266655921936035,
0.03607333300169557,0.982086181640625,6.659525394439697,9.40667724609375,
0.03746187500655651,0.9907989501953125,6.380532264709473,9.51871395111084,
0.03915550000965595,1.0012969970703125,6.230306148529053,9.333650588989258,
0.040576792001957074,1.00982666015625,6.151429653167725,9.651854515075684,
0.04195570800220594,1.0184326171875,6.148644924163818,9.819957733154297,
0.0433535419870168,1.026947021484375,6.1258039474487305,9.928136825561523,
0.04474283300805837,1.0352935791015625,6.121067047119141,10.047158241271973,
0.046113124990370125,1.0435333251953125,6.008148670196533,9.891796112060547,
0.04748245800146833,1.0513916015625,5.849850654602051,10.165714263916016,
0.04911474999971688,1.0607757568359375,5.779006004333496,10.019193649291992,
0.05046791699714959,1.0685882568359375,5.75947904586792,10.054853439331055,
0.05186066700844094,1.0769500732421875,5.920688629150391,9.68730354309082,
0.0532410419837106,1.0852203369140625,5.997348785400391,9.545601844787598,
0.05459779198281467,1.0939483642578125,6.234546661376953,8.947980880737305,
0.05597620800836012,1.1030120849609375,6.465715408325195,8.783651351928711,
0.05735833299695514,1.1129913330078125,6.882892608642578,8.794866561889648,
0.0587400000076741,1.123138427734375,7.22245979309082,8.653505325317383,
0.06012395798461512,1.1339874267578125,7.510484218597412,8.152192115783691,
0.061526832985691726,1.14520263671875,7.818458080291748,8.069585800170898,
0.06288270800723694,1.1564483642578125,8.091273307800293,8.049917221069336,
0.06423758299206384,1.16796875,8.309033393859863,8.316402435302734,
0.06562466698233038,1.1798858642578125,8.555895805358887,7.537313461303711,
0.06700399998226203,1.1925811767578125,8.861446380615234,7.978858947753906,
0.06836941698566079,1.2052459716796875,9.110259056091309,7.203103065490723,
0.06973512499826029,1.21795654296875,9.227887153625488,7.633103847503662,
0.07109062498784624,1.2311248779296875,9.471973419189453,7.344354152679443,
0.07247074999031611,1.2444915771484375,9.682631492614746,7.167478084564209,
0.07388295800774358,1.2588043212890625,9.86904239654541,7.149064540863037,
0.07524191698757932,1.27288818359375,10.150901794433594,6.834746360778809,
0.07667683300678618,1.287445068359375,10.47258472442627,6.844539642333984,
0.07811624999158084,1.30377197265625,10.725791931152344,6.701035499572754,
0.07947408300242387,1.3187713623046875,10.888532638549805,7.069634914398193,
0.08087599999271333,1.3346405029296875,11.180069923400879,6.651025295257568,
0.08223941700998694,1.350311279296875,11.33072566986084,6.475412368774414,
0.08361108298413455,1.3659210205078125,11.391594886779785,6.706367015838623,
0.08498924999730662,1.3819580078125,11.598159790039062,6.098105430603027,
0.08635779199539684,1.3985595703125,11.75908088684082,6.634897232055664,
0.08774479199200869,1.4147186279296875,11.790358543395996,6.573766708374023,
0.08909591700648889,1.431060791015625,11.887395858764648,6.699358940124512,
0.09044899998116307,1.447540283203125,11.980537414550781,6.580628395080566,
0.09180220798589289,1.46380615234375,11.924076080322266,6.898496150970459,
0.09319183300249279,1.480072021484375,11.915066719055176,6.850100517272949,
0.09457454198854975,1.49713134765625,12.057722091674805,5.470033645629883,
0.09591583299334161,1.513214111328125,12.063072204589844,6.620560646057129,
0.09729079200769775,1.530029296875,12.224808692932129,6.016318321228027,
0.09868429199559614,1.54681396484375,12.246607780456543,6.400760650634766,
0.10003466700436547,1.5637054443359375,12.133288383483887,5.865166664123535,
0.10139970798627473,1.5800933837890625,12.03703784942627,6.019375801086426,
0.10278774998732843,1.5965728759765625,12.06471061706543,6.594954967498779,
0.1041665000084322,1.6136932373046875,12.165081977844238,6.314769268035889,
0.10552654200000688,1.6304168701171875,12.233510971069336,6.041253089904785,
0.10694379199412651,1.64727783203125,12.309335708618164,5.558342933654785,
0.10848383299889974,1.6666717529296875,12.160298347473145,6.081684112548828,
0.10997116699581966,1.683563232421875,12.116456031799316,5.949804306030273,
0.11131766700418666,1.701507568359375,12.374096870422363,6.361730098724365,
0.11273183298180811,1.7183990478515625,12.381080627441406,6.506387710571289,
0.11408695799764246,1.73602294921875,12.533466339111328,6.10725736618042,
0.11543770800926723,1.75347900390625,12.687829971313477,5.649808406829834,
0.11679745800211094,1.77105712890625,12.799630165100098,4.941833972930908,
0.11814512498676777,1.7884521484375,12.98476505279541,6.147000312805176,
0.11952095798915252,1.8066558837890625,13.17953872680664,5.850705146789551,
0.12085816700709984,1.8250885009765625,13.371383666992188,5.713456153869629,
0.12221929198130965,1.843536376953125,13.665308952331543,5.528663635253906,
0.12355758299236186,1.862396240234375,13.735776901245117,3.683887481689453,
0.12492687499616295,1.8814544677734375,13.860496520996094,1.191502571105957,
0.12630229198839515,1.899871826171875,13.623605728149414,0.17162805795669556,
0.12775462499121204,1.91778564453125,13.095898628234863,0.1536666303873062,
0.12916012498317286,1.9354095458984375,12.580111503601074,-0.36907321214675903,
0.13052762500592507,1.95159912109375,11.979129791259766,-0.43422505259513855,
0.13189187500393018,1.9657440185546875,10.916902542114258,-20.564781188964844,
0.1332604170020204,1.97296142578125,7.451938152313232,-20.273176193237305,
0.13463108299765736,1.9747467041015625,3.7626590728759766,-14.07175350189209,
0.13601812499109656,1.9731292724609375,0.7928998470306396,-12.314596176147461,
0.13741624998510815,1.9688568115234375,-1.5482814311981201,-11.736891746520996,
0.1389658749976661,1.96148681640625,-3.6128644943237305,-8.647639274597168,
0.1403703329851851,1.95263671875,-5.299345016479492,-9.352270126342773,
0.14173166698310524,1.942718505859375,-6.474626064300537,-8.089836120605469,
0.1431031670072116,1.9312744140625,-7.595377445220947,-7.253119945526123,
0.14449829200748354,1.9182586669921875,-8.660693168640137,-7.462701797485352,
0.14590379199944437,1.9038543701171875,-9.634361267089844,-6.969393730163574,
0.14730966699426062,1.8884124755859375,-10.465706825256348,-6.934535503387451,
0.14894995800568722,1.8700103759765625,-10.808310508728027,-6.922510147094727,
0.15037929199752398,1.85430908203125,-10.944084167480469,-6.889430046081543,
0.15174891700735316,1.8395538330078125,-10.832414627075195,-6.828660488128662,
0.1531665829825215,1.8249664306640625,-10.746400833129883,-7.040411949157715,
0.1546137080003973,1.809814453125,-10.63747787475586,-7.026278972625732,
0.15614033298334107,1.7945556640625,-10.481329917907715,-6.837122917175293,
0.1575943749921862,1.779052734375,-10.073968887329102,-7.032741546630859,
0.15925974998390302,1.7625732421875,-9.85080623626709,-7.380492687225342,
0.16070654199575074,1.748809814453125,-9.994240760803223,-7.166535377502441,
0.1621048749948386,1.734649658203125,-9.746199607849121,-7.5043559074401855,
0.16350604200852104,1.7216339111328125,-9.490799903869629,-7.203823089599609,
0.16491308299009688,1.707672119140625,-9.81863784790039,-6.939103603363037,
0.16674583300482482,1.6924285888671875,-10.14618968963623,-6.718112945556641,
0.16909870799281634,1.6629791259765625,-10.80835247039795,-5.58256721496582,
0.17048612498911098,1.6467437744140625,-11.277302742004395,-5.534405708312988,
0.17190220800694078,1.62994384765625,-11.698705673217773,-6.091093063354492,
0.17363629199098796,1.6117095947265625,-12.335366249084473,-6.381263256072998,
0.17503154199221171,1.588958740234375,-13.054564476013184,-5.214276313781738,
0.1764527079940308,1.5691680908203125,-13.514907836914062,-4.590485572814941,
0.17789216700475663,1.5482330322265625,-14.220273971557617,-5.037371635437012,
0.179286458005663,1.5269012451171875,-14.833708763122559,-4.621423721313477,
0.1806861250079237,1.5048980712890625,-15.373218536376953,-4.9824323654174805,
0.18223375000525266,1.4796295166015625,-15.865866661071777,-4.56328010559082,
0.1837035419885069,1.45648193359375,-16.277828216552734,-5.109764099121094,
0.18508354199002497,1.4320526123046875,-16.779008865356445,-4.451889514923096,
0.18658308300655335,1.406005859375,-17.13636016845703,-4.4083251953125,
0.1880397500062827,1.3805389404296875,-17.518402099609375,-3.618699789047241,
0.18964304198743775,1.3553924560546875,-17.542146682739258,-3.943789482116699,
0.19104083298589103,1.326416015625,-17.64677619934082,-3.538151264190674,
0.19247645800351165,1.3022308349609375,-17.69851303100586,-4.5156965255737305,
0.1938679580052849,1.2763214111328125,-17.655441284179688,-4.322273254394531,
0.1952557920012623,1.2521820068359375,-17.647432327270508,-4.3626813888549805,
0.1969406669959426,1.222991943359375,-17.5234317779541,-3.50946044921875,
0.19834995799465105,1.19830322265625,-17.335765838623047,-4.550963401794434,
0.19981437499518506,1.1745452880859375,-17.10688018798828,-4.901174545288086,
0.20121579198166728,1.14984130859375,-16.95816421508789,-4.817753314971924,
0.2026489170093555,1.126129150390625,-16.683332443237305,-4.587629795074463,
0.20412420798675157,1.1021728515625,-16.463457107543945,-5.306694984436035,
0.20553124998696148,1.0792694091796875,-16.174602508544922,-5.093425750732422,
0.2069073749880772,1.056884765625,-16.025598526000977,-5.025955677032471,
0.20830745800049044,1.0353546142578125,-15.852919578552246,-4.702282905578613,
0.20978920799097978,1.013397216796875,-15.725805282592773,-4.942935466766357,
0.21128945800592192,0.9898223876953125,-15.716382026672363,-5.258671760559082,
0.21282508299918845,0.96429443359375,-15.655807495117188,-5.399431228637695,
0.21422904200153425,0.9425048828125,-15.625542640686035,-5.45637321472168,
0.2159606250061188,0.9153594970703125,-15.63259506225586,-4.239770889282227,
0.2173963749955874,0.892425537109375,-15.632379531860352,-1.4241899251937866,
0.2188748329936061,0.87030029296875,-15.272456169128418,-0.8582333326339722,
0.22027633298421279,0.8501434326171875,-14.740744590759277,-0.0032388668041676283,
0.22176483299699612,0.830474853515625,-14.101229667663574,0.4812151789665222,
0.22323270799824968,0.8103790283203125,-13.441176414489746,0.43443402647972107,
0.22473029198590666,0.79254150390625,-12.817403793334961,1.0477724075317383,
0.2263353749876842,0.7749481201171875,-11.112872123718262,20.632841110229492,
0.2277504169906024,0.767333984375,-7.57254695892334,20.259214401245117,
0.22914679200039245,0.765289306640625,-3.7940566539764404,15.5054931640625,
0.23074541700771078,0.7667388916015625,-0.6704176664352417,12.216407775878906,
0.23246616698452272,0.772186279296875,1.9733529090881348,9.684300422668457,
0.23386895799194463,0.779052734375,3.7242326736450195,9.297868728637695,
0.23528854199685156,0.787445068359375,5.176362991333008,7.932476997375488,
0.23674829199444503,0.798248291015625,6.563098430633545,8.07081413269043,
0.23848029199871235,0.809783935546875,7.57188081741333,7.254534721374512,
0.23988558299606666,0.8252716064453125,8.410425186157227,7.785613059997559,
0.24131441698409617,0.8372802734375,8.472926139831543,8.335541725158691,
0.242770874989219,0.8491058349609375,8.365532875061035,7.440301895141602,
0.24417195800924674,0.8616485595703125,8.6080961227417,7.817282676696777,
0.24563558300724253,0.8737640380859375,8.629959106445312,7.885054588317871,
0.24703316699014977,0.8859710693359375,8.396966934204102,8.620660781860352,
0.2488197500060778,0.89898681640625,7.50199556350708,9.265827178955078,
0.250199000001885,0.9077911376953125,6.768534183502197,9.64391040802002,
0.2516210830071941,0.9158172607421875,6.135669708251953,10.352239608764648,
0.2529912079917267,0.923248291015625,5.637164115905762,10.309280395507812,
0.2543677499925252,0.92999267578125,5.217452526092529,10.93392562866211,
0.25583583299885504,0.93695068359375,4.988594055175781,10.25723648071289,
0.25770799999008887,0.945709228515625,4.786499500274658,10.744754791259766,
0.25916145800147206,0.9533843994140625,4.984267234802246,10.06029987335205,
0.26057799998670816,0.9608154296875,5.254329204559326,9.625205039978027,
0.2619779169908725,0.969512939453125,5.785772323608398,9.440113067626953,
0.26353720799670555,0.980255126953125,6.400514125823975,9.18354606628418,
0.2649137919943314,0.9904327392578125,7.027040004730225,8.388419151306152,
0.26633233300526626,1.001251220703125,7.497843265533447,8.506186485290527,
0.2678002080065198,1.013336181640625,8.09427547454834,7.598272323608398,
0.2691910419962369,1.0265045166015625,8.652061462402344,7.841683864593506,
0.2705791250045877,1.039337158203125,9.086236953735352,6.731402397155762,
0.27205495798261836,1.0528564453125,9.43899154663086,7.297980308532715,
0.27377333299955353,1.069671630859375,9.615172386169434,7.449216842651367,
0.27523379199556075,1.08453369140625,9.791518211364746,7.531410217285156,
0.27672554200398736,1.0991668701171875,9.911005020141602,7.1584320068359375,
0.27817891698214225,1.1136627197265625,9.885791778564453,7.1539225578308105,
0.27961395800230093,1.128326416015625,9.949799537658691,7.417640686035156,
0.2810427499935031,1.1422576904296875,9.80228328704834,7.037981986999512,
0.2824775420012884,1.1558990478515625,9.757054328918457,7.378689765930176,
0.28392399998847395,1.1698455810546875,9.5768461227417,7.687664031982422,
0.28550712499418296,1.184600830078125,9.496013641357422,7.558160781860352,
0.28692229199805297,1.198455810546875,9.467076301574707,6.585925579071045,
0.2883105829823762,1.21185302734375,9.514425277709961,7.421391487121582,
0.2897155419923365,1.2249908447265625,9.587233543395996,7.844903945922852,
0.29111866699531674,1.239105224609375,9.748249053955078,7.236013412475586,
0.2925280419876799,1.2532806396484375,9.97175121307373,6.827798366546631,
0.29396891698706895,1.2676544189453125,10.167091369628906,6.840096473693848,
0.29536904199630953,1.283172607421875,10.447480201721191,6.668746471405029,
0.29675149999093264,1.29852294921875,10.747756958007812,6.822917938232422,
0.29814220799016766,1.31353759765625,10.882702827453613,6.742923259735107,
0.2995619169960264,1.329376220703125,11.17068862915039,5.894868850708008,
0.3009694579814095,1.3458404541015625,11.335858345031738,6.665200233459473,
0.30235741700744256,1.3620452880859375,11.482877731323242,6.390308380126953,
0.3038241670001298,1.3790130615234375,11.710223197937012,6.4565653800964355,
0.3053450419974979,1.39666748046875,11.737977981567383,6.66390323638916,
0.3069184999912977,1.41595458984375,11.766521453857422,6.1203131675720215,
0.30864574998850003,1.4325408935546875,11.796530723571777,6.3350934982299805,
0.3100532079988625,1.45294189453125,11.771060943603516,6.251317977905273,
0.31144995798240416,1.4691925048828125,11.669520378112793,6.242990493774414,
0.3129200419934932,1.486663818359375,11.81879711151123,6.842019557952881,
0.31462925000232644,1.5038299560546875,11.929187774658203,6.890697479248047,
0.31618537500617094,1.525115966796875,12.042631149291992,6.051409721374512,
0.31759808299830183,1.5435333251953125,12.179859161376953,6.994225978851318,
0.3189896249969024,1.560516357421875,12.137838363647461,6.939226150512695,
0.32041908300016075,1.57720947265625,12.01155948638916,6.801286697387695,
0.32183174998499453,1.5944671630859375,12.0294828414917,5.843805313110352,
0.3233530419820454,1.6126861572265625,12.080516815185547,6.019414901733398,
0.32566970799234696,1.6300506591796875,12.116822242736816,5.887368202209473,
0.32772591698449105,1.665313720703125,12.149199485778809,6.455339431762695,
0.3291967499826569,1.68408203125,12.22692584991455,6.363396644592285,
0.33166020800126716,1.7061309814453125,12.396613121032715,6.206313133239746,
0.33347041698289104,1.736480712890625,12.625686645507812,6.350111961364746,
0.3349022500042338,1.7568511962890625,12.868548393249512,5.792128562927246,
0.33636391698382795,1.7751007080078125,12.984782218933105,5.622528076171875,
0.33784349999041297,1.7947998046875,13.285992622375488,5.743831157684326,
0.33954474999336526,1.818756103515625,13.464126586914062,5.721852779388428,
0.3416107500088401,1.838897705078125,13.854837417602539,5.836032867431641,
0.34306616699905135,1.86822509765625,14.11762523651123,2.514134168624878,
0.34452620800584555,1.8887176513671875,14.018913269042969,0.48695242404937744,
0.34602058300515637,1.9084014892578125,13.632664680480957,0.2671535313129425,
0.3478867079829797,1.931732177734375,12.932230949401855,-0.04901394248008728,
0.3493310420017224,1.9498748779296875,12.205655097961426,-0.5622532963752747,
0.3507724170049187,1.965301513671875,11.010560035705566,-20.6340274810791,
0.35222112500923686,1.9723663330078125,7.295515060424805,-19.983566284179688,
0.3539203330001328,1.973541259765625,2.6170883178710938,-13.234416961669922,
0.3553456249937881,1.9710693359375,-0.04063784331083298,-11.445182800292969,
0.3569806249870453,1.9647979736328125,-2.5703368186950684,-9.599530220031738,
0.3593421249825042,1.953369140625,-5.031675338745117,-8.788455963134766,
0.36084095799014904,1.93951416015625,-6.799938201904297,-7.441161155700684,
0.36261733298306353,1.9270477294921875,-7.960290908813477,-7.694142818450928,
0.36454329200205393,1.90460205078125,-9.581583023071289,-7.208992004394531,
0.36603066700627096,1.8880615234375,-10.52334213256836,-7.05002498626709,
0.36792641700594686,1.8670501708984375,-10.88258171081543,-6.52645206451416,
0.36936795798828825,1.8508758544921875,-10.99170207977295,-6.323238372802734,
0.3708720830036327,1.8354339599609375,-11.00326156616211,-6.578139305114746,
0.37242270799470134,1.8187408447265625,-10.773015022277832,-6.943719387054443,
0.3738992500002496,1.8020477294921875,-10.702399253845215,-7.121455669403076,
0.37540866699418984,1.7873382568359375,-10.411133766174316,-6.922553062438965,
0.3768779579841066,1.7719573974609375,-10.02478313446045,-7.191814422607422,
0.37857458301004954,1.755279541015625,-9.893237113952637,-7.324603080749512,
0.3800147080037277,1.74188232421875,-9.707980155944824,-6.988696575164795,
