time,position,velocity,q_current,command_position
0.0015041250153444707,0.2680511474609375,-0.006423427257686853,0.5584907531738281,
0.0036852500052191317,0.2710723876953125,0.2417687177658081,3.8350884914398193,
0.005577916017500684,0.2844696044921875,1.26361083984375,3.7641396522521973,
0.0073423330031801015,0.296875,2.061762571334839,5.73646879196167,
0.008754458016483113,0.3051605224609375,2.489243268966675,5.6223273277282715,
0.010154666000744328,0.3144989013671875,2.951740026473999,5.0600905418396,
0.011925625003641471,0.3247528076171875,3.4338371753692627,5.013605117797852,
0.013633250026032329,0.3388519287109375,3.9872870445251465,5.766478538513184,
0.015069541026605293,0.3480377197265625,4.27572774887085,5.2950897216796875,
0.016640458023175597,0.3587799072265625,4.586850643157959,5.2191972732543945,
0.01806016601040028,0.3688507080078125,4.8660454750061035,5.132351398468018,
0.019475583016173914,0.379058837890625,5.1387939453125,4.90676212310791,
0.020902250020299107,0.3892059326171875,5.360033988952637,5.245574951171875,
0.022364291013218462,0.3987579345703125,5.49447774887085,5.2770891189575195,
0.023736583010759205,0.4069976806640625,5.537501335144043,5.229145526885986,
0.025125915999524295,0.41412353515625,5.502038478851318,5.360835552215576,
0.026510541007155553,0.420684814453125,5.409601211547852,5.475980281829834,
0.028265333006856963,0.4280853271484375,5.2387776374816895,5.446041107177734,
0.02964395802700892,0.4334564208984375,5.0958662033081055,5.482328414916992,
0.031102458015084267,0.439178466796875,4.955225944519043,5.827706336975098,
0.032537125021917745,0.4444427490234375,4.821061134338379,6.117679119110107,
0.034992833010619506,0.4521636962890625,4.609320163726807,5.9468817710876465,
0.03683966601965949,0.459075927734375,4.440855503082275,5.8364105224609375,
0.038264166010776535,0.4653472900390625,4.363372325897217,5.9242377281188965,
0.03965341602452099,0.470977783203125,4.337687969207764,5.846780300140381,
0.0410588750091847,0.4767303466796875,4.300174713134766,5.792497634887695,
0.042468875006306916,0.4819183349609375,4.244321346282959,5.864965438842773,
0.04386137501569465,0.4876556396484375,4.217867851257324,5.581237316131592,
0.045338708005147055,0.4940643310546875,4.247369766235352,5.364075660705566,
0.04768520800280385,0.5051727294921875,4.373721599578857,5.301845550537109,
0.049634291004622355,0.5173187255859375,4.594697952270508,5.0015764236450195,
0.05099175000214018,0.525482177734375,4.746011734008789,4.99152946472168,
0.052646916010417044,0.53521728515625,4.903887748718262,5.014878273010254,
0.0541773330187425,0.545196533203125,5.100859642028809,4.800479888916016,
0.05564837501151487,0.5554046630859375,5.319211959838867,5.173694610595703,
0.05713341600494459,0.566314697265625,5.553468227386475,5.070189476013184,
0.05867287502042018,0.57781982421875,5.7913312911987305,4.968061447143555,
0.0600666250102222,0.588592529296875,6.0052947998046875,4.941465377807617,
0.06164979102322832,0.6010894775390625,6.2350311279296875,5.077342987060547,
0.06302587501704693,0.611968994140625,6.40690279006958,5.231213569641113,
0.06446675001643598,0.6225128173828125,6.5503716468811035,5.183052062988281,
0.0658522910089232,0.6334991455078125,6.677938461303711,5.114374160766602,
0.0672719580179546,0.6439056396484375,6.780585289001465,5.107113838195801,
0.06864045801921748,0.6549530029296875,6.886848449707031,4.678699970245361,
0.07067362501402386,0.6714324951171875,7.099534511566162,4.622026443481445,
0.07262891600839794,0.6884002685546875,7.335496425628662,4.562721252441406,
0.07466795801883563,0.7064666748046875,7.562672138214111,4.325381278991699,
0.07608745800098404,0.7193603515625,7.74833869934082,4.531475067138672,
0.07758808301878162,0.7336273193359375,7.937652587890625,4.593247413635254,
0.07899137501954101,0.74627685546875,8.082843780517578,4.794219970703125,
0.08047695801360533,0.759857177734375,8.242009162902832,4.85490083694458,
0.08188779102056287,0.774200439453125,8.39995002746582,4.7464094161987305,
0.08324087501387112,0.787109375,8.515090942382812,4.526409149169922,
0.08463491601287387,0.7999420166015625,8.610356330871582,4.663134574890137,
0.08599125000182539,0.8127899169921875,8.700182914733887,4.435334205627441,
0.08742270802031271,0.825775146484375,8.785438537597656,4.543435573577881,
0.0887896660133265,0.8396453857421875,8.888079643249512,4.287044525146484,
0.09019591601099819,0.8535003662109375,9.002153396606445,4.540814399719238,
0.09160304101533256,0.8679656982421875,9.126697540283203,4.619055271148682,
0.09297891601454467,0.8819122314453125,9.245709419250488,4.415318489074707,
0.09442150001996197,0.896453857421875,9.373790740966797,4.338901996612549,
0.0958319159981329,0.9117889404296875,9.525389671325684,4.266948699951172,
0.09720941600971855,0.9270172119140625,9.677928924560547,4.267723083496094,
0.09861770801944658,0.9423370361328125,9.819441795349121,4.473179340362549,
0.09996408302686177,0.9574737548828125,9.961128234863281,4.141335487365723,
0.1013421660172753,0.9728240966796875,10.096822738647461,3.9016871452331543,
0.1027755000104662,0.9896240234375,10.256929397583008,4.080717086791992,
0.10417995799798518,1.005645751953125,10.417119979858398,4.147718906402588,
0.10560466602328233,1.02227783203125,10.555624008178711,4.465415000915527,
0.10716925002634525,1.0396881103515625,10.62242317199707,4.451874732971191,
0.10859250000794418,1.0556182861328125,10.679023742675781,4.167928695678711,
0.10997525000129826,1.0719146728515625,10.787930488586426,3.777670383453369,
0.11130583300837316,1.08856201171875,10.94104290008545,3.905301094055176,
0.11268554101116024,1.105072021484375,11.094983100891113,4.0245537757873535,
0.11408254102570936,1.1221771240234375,11.220880508422852,4.023139953613281,
0.11546816601185128,1.138702392578125,11.315897941589355,4.128080368041992,
0.11684141602017917,1.155853271484375,11.421273231506348,4.150112152099609,
0.11856929102214053,1.17755126953125,11.571894645690918,3.997774124145508,
0.11998845799826086,1.1949005126953125,11.695409774780273,4.2571516036987305,
0.121424791024765,1.2132568359375,11.822665214538574,3.741062879562378,
0.12283200002275407,1.2316131591796875,11.93524169921875,4.017855644226074,
0.12420162500347942,1.2498626708984375,12.059141159057617,3.7076778411865234,
0.12558870800421573,1.26849365234375,12.19974136352539,3.726271152496338,
0.1269735830137506,1.2869873046875,12.346039772033691,3.175473690032959,
0.12855983301415108,1.3081512451171875,12.45728588104248,2.851346015930176,
0.12999520800076425,1.3254241943359375,12.40881633758545,2.6921911239624023,
0.13141558301867917,1.3404541015625,12.219712257385254,2.285179376602173,
0.132788208022248,1.3534088134765625,11.88534164428711,1.600544810295105,
0.1342289160238579,1.36431884765625,11.361653327941895,1.4621895551681519,
0.13559908300521784,1.3719024658203125,10.722278594970703,1.6012604236602783,
0.1371005410037469,1.377471923828125,9.992547988891602,1.0124647617340088,
0.13856558300903998,1.38262939453125,9.156574249267578,0.28773483633995056,
0.1399498330138158,1.387054443359375,8.483795166015625,0.19418063759803772,
0.14130420802393928,1.3917388916015625,7.930898666381836,-0.007408780977129936,
0.14266720801242627,1.3972625732421875,7.504960060119629,-0.5169199705123901,
0.14403441600734368,1.4037628173828125,7.2042927742004395,-0.5455577373504639,
0.14545762501074933,1.4109954833984375,6.974749565124512,-6.787681579589844,
0.14689925001584925,1.41314697265625,6.323103427886963,-5.294089317321777,
0.14853516602306627,1.4090728759765625,5.178650856018066,-6.169710159301758,
0.14992491601151414,1.4060516357421875,4.356866836547852,-7.064474105834961,
0.15133824999793433,1.4029693603515625,3.619830846786499,-6.474388122558594,
0.15362545801326632,1.396514892578125,2.4787588119506836,-6.616701126098633,
0.15516766600194387,1.3921661376953125,1.8292698860168457,-6.688326835632324,
0.15663591600605287,1.3878173828125,1.2672182321548462,-6.482297897338867,
0.15802529102074914,1.3831634521484375,0.7509970664978027,-6.197597026824951,
0.159479125024518,1.377899169921875,0.24513085186481476,-6.020206451416016,
0.16097995801828802,1.3714141845703125,-0.3017883002758026,-5.718873500823975,
0.16233099999953993,1.36474609375,-0.8035520911216736,-5.415444374084473,
0.1637229160114657,1.3570709228515625,-1.3343855142593384,-5.012380123138428,
0.16521279100561514,1.3473968505859375,-1.9561686515808105,-4.624849319458008,
0.16661900002509356,1.33673095703125,-2.580251693725586,-4.892282485961914,
0.16834854101762176,1.32550048828125,-3.1916487216949463,-4.261881351470947,
0.16999208301422186,1.3071441650390625,-4.129072189331055,-4.312565326690674,
0.17142004100605845,1.2934417724609375,-4.776973724365234,-4.113648891448975,
0.1728137910249643,1.2782745361328125,-5.442813396453857,-4.103154182434082,
0.17417004102026112,1.2624664306640625,-6.132359981536865,-3.788418769836426,
0.1756279160035774,1.2444000244140625,-6.861013412475586,-3.8258438110351562,
0.17748970800312236,1.2198333740234375,-7.785651683807373,-3.608114719390869,
0.1788494580250699,1.200286865234375,-8.47955322265625,-3.085419178009033,
0.1802902500203345,1.178955078125,-9.214956283569336,-3.224870204925537,
0.18167754102614708,1.1569061279296875,-9.948487281799316,-3.179251194000244,
0.1832485830236692,1.1318206787109375,-10.703409194946289,-4.053011417388916,
0.18463412500568666,1.1096343994140625,-11.31064510345459,-3.1075639724731445,
0.18732850000378676,1.07550048828125,-12.181594848632812,-3.807260036468506,
0.1887127910158597,1.04022216796875,-12.96834945678711,-3.5752789974212646,
0.19006745802471414,1.01629638671875,-13.466333389282227,-3.4895339012145996,
0.19147770802373998,0.991485595703125,-13.981654167175293,-3.6519296169281006,
0.19286912502138875,0.9654998779296875,-14.456947326660156,-3.4913883209228516,
0.19441691602696665,0.938323974609375,-14.854955673217773,-3.263838768005371,
0.1957872080092784,0.914215087890625,-15.119134902954102,-2.9387006759643555,
0.1971683750161901,0.8916015625,-15.275348663330078,-3.027097225189209,
0.19865095801651478,0.868804931640625,-15.305327415466309,-3.1406686305999756,
0.2000580000167247,0.84869384765625,-15.197936058044434,-3.748337507247925,
0.20151041602366604,0.830169677734375,-14.97624683380127,-3.353224515914917,
0.20314050000160933,0.8089752197265625,-14.599449157714844,-3.551668643951416,
0.20451929100090638,0.7925262451171875,-14.31874942779541,-3.1466541290283203,
0.2059337500249967,0.7745819091796875,-14.151171684265137,-2.8973770141601562,
0.20750295801553875,0.751007080078125,-14.229196548461914,-1.8184552192687988,
0.2088997500250116,0.7279815673828125,-14.51726245880127,-1.7894010543823242,
0.21032666601240635,0.703704833984375,-14.793261528015137,-2.766564130783081,
0.2126797910023015,0.6659698486328125,-15.002358436584473,-3.169645309448242,
0.21467350001330487,0.6339569091796875,-15.160075187683105,-2.9108970165252686,
0.21616883302340284,0.6104888916015625,-15.299089431762695,-2.767550468444824,
0.21752187501988374,0.5861968994140625,-15.489092826843262,-2.466200828552246,
0.21939462501904927,0.561614990234375,-15.679306983947754,-3.4521806240081787,
0.2219600829994306,0.5104217529296875,-15.994608879089355,-2.904228687286377,
0.22372220800025389,0.479522705078125,-16.244915008544922,-2.6493687629699707,
0.22509845800232142,0.4542083740234375,-16.4069881439209,-2.05057430267334,
0.22650350001640618,0.43115234375,-16.457366943359375,-2.319690227508545,
0.22849608300020918,0.4012908935546875,-16.255176544189453,-2.2154011726379395,
0.2300915000087116,0.3804779052734375,-15.753795623779297,-2.1712112426757812,
0.23147066601086408,0.3669586181640625,-15.108360290527344,-1.4327285289764404,
0.23286941600963473,0.3567962646484375,-14.224859237670898,-1.3704276084899902,
0.23435258300742134,0.35040283203125,-13.138701438903809,-0.7735757827758789,
0.23765241602086462,0.341705322265625,-10.509635925292969,-0.13349580764770508,
0.23917908300063573,0.3372650146484375,-9.661657333374023,0.12075917422771454,
0.24064250002265908,0.330780029296875,-8.974906921386719,0.9007433652877808,
0.24204141600057483,0.3231353759765625,-8.557754516601562,1.257008671760559,
0.2434860409994144,0.3143157958984375,-8.32857608795166,1.3850431442260742,
0.24675437502446584,0.288787841796875,-8.232186317443848,1.1923625469207764,
0.2486745000060182,0.271820068359375,-8.250373840332031,0.9806572794914246,
0.25011991601786576,0.2613372802734375,-8.184502601623535,6.364999294281006,
0.2515040410216898,0.256805419921875,-7.580099582672119,5.064307689666748,
0.2529012080049142,0.2590179443359375,-6.550582408905029,5.5710039138793945,
0.2544553750194609,0.261199951171875,-5.609652996063232,6.8291826248168945,
0.2558503330219537,0.2632904052734375,-4.7836079597473145,6.525923728942871,
0.25723091600229964,0.2666168212890625,-3.9803028106689453,6.454482078552246,
0.2586157910118345,0.2701568603515625,-3.2504661083221436,6.743885040283203,
0.2601779160031583,0.2735595703125,-2.6130411624908447,6.412862300872803,
0.2616332500183489,0.2774658203125,-1.9701673984527588,6.540707588195801,
0.26326004101429135,0.281707763671875,-1.3783539533615112,6.529540538787842,
0.2646226659999229,0.2855987548828125,-0.9153994917869568,6.271787643432617,
0.26603866601362824,0.2897186279296875,-0.4819090664386749,6.452916145324707,
0.26746908301720396,0.2941741943359375,-0.07080640643835068,6.090986251831055,
0.2688786660146434,0.2991943359375,0.3401487171649933,5.987926483154297,
0.27033366600517184,0.304656982421875,0.7404853105545044,5.791045188903809,
0.2723370830062777,0.3126068115234375,1.2646318674087524,5.576639175415039,
0.2737358750018757,0.32159423828125,1.812300443649292,5.3465189933776855,
0.2751333330234047,0.3303375244140625,2.3093814849853516,5.113965034484863,
0.2765461250091903,0.3397216796875,2.7950246334075928,5.261221885681152,
0.2779320830013603,0.3494720458984375,3.264143943786621,4.622717380523682,
0.2792947080160957,0.3602142333984375,3.7690532207489014,4.451255798339844,
0.2806873750232626,0.3721466064453125,4.313658714294434,4.3544206619262695,
0.2822747500031255,0.386474609375,4.941324234008789,4.602619171142578,
0.2836992500233464,0.400482177734375,5.455674648284912,4.620052814483643,
0.2856163750111591,0.4189910888671875,6.081282615661621,4.346011638641357,
0.28703000000678003,0.4329376220703125,6.516631126403809,5.02814245223999,
0.2884952910244465,0.44622802734375,6.848836421966553,4.990023612976074,
0.2898928750073537,0.4588165283203125,7.051327228546143,5.166167259216309,
0.29125408301479183,0.4691009521484375,7.102074146270752,5.245521545410156,
0.29261620802571997,0.4776153564453125,7.0051445960998535,5.59802770614624,
0.29448691601282917,0.4866790771484375,6.687328815460205,5.610544204711914,
0.29602404101751745,0.4924163818359375,6.3965888023376465,5.607020854949951,
0.29755562500213273,0.49859619140625,6.101894378662109,5.133680820465088,
0.2989751660206821,0.505645751953125,5.907788276672363,4.941469192504883,
0.3004388330155052,0.5132293701171875,5.854588985443115,4.956413269042969,
0.3018491660186555,0.5229339599609375,5.944705963134766,4.24139404296875,
0.3032783330127131,0.53314208984375,6.079665184020996,4.82623815536499,
0.3046706660243217,0.5430908203125,6.195008754730225,4.674047470092773,
0.3066673749999609,0.55767822265625,6.368432521820068,4.797032356262207,
0.30832016601925716,0.5708770751953125,6.573939323425293,4.566212177276611,
0.30972637500963174,0.5825347900390625,6.770657539367676,4.430418968200684,
0.3111531660251785,0.5945587158203125,6.956450462341309,4.8643293380737305,
0.31256395802483894,0.606231689453125,7.110428333282471,4.988844394683838,
0.31397295801434666,0.61810302734375,7.245499610900879,4.8994951248168945,
0.31545479100896046,0.6297454833984375,7.365523338317871,4.788295745849609,
0.3168372910004109,0.641937255859375,7.476541042327881,4.959521293640137,
0.31832666601985693,0.6540069580078125,7.5645365715026855,4.878435134887695,
0.319816000002902,0.6661376953125,7.667727470397949,4.4913105964660645,
0.3215090410085395,0.6816558837890625,7.824465751647949,4.688850402832031,
0.3229256660270039,0.6944122314453125,7.9473419189453125,4.61121940612793,
0.3245792500092648,0.707916259765625,8.074153900146484,4.579104423522949,
0.326457625022158,0.722869873046875,8.235960006713867,4.412565231323242,
0.3291870000248309,0.74755859375,8.463519096374512,4.633169651031494,
0.33091691602021456,0.768096923828125,8.658510208129883,4.563778877258301,
0.33287912502419204,0.7864990234375,8.810921669006348,4.414828300476074,
0.3344791660201736,0.801727294921875,8.900140762329102,4.81085205078125,
0.33620408302522264,0.8183135986328125,8.967575073242188,4.418325424194336,
0.337705250014551,0.8331146240234375,9.004669189453125,4.471377372741699,
0.3399309579981491,0.8519134521484375,9.065896987915039,4.516504764556885,
0.3417737499985378,0.8714599609375,9.177704811096191,4.641462326049805,
0.3434755410125945,0.8888702392578125,9.296441078186035,4.520327568054199,
0.3449373330222443,0.904541015625,9.41030502319336,4.251702308654785,
0.34670479100896046,0.9197998046875,9.527148246765137,4.329861640930176,
0.3482915830099955,0.94000244140625,9.69135570526123,4.387443542480469,
0.3497854580054991,0.9565582275390625,9.830554008483887,4.3355937004089355,
0.3511524159985129,0.971954345703125,9.958430290222168,4.03954553604126,
0.3526950000086799,0.9878997802734375,10.092580795288086,4.230318069458008,
0.35470941601670347,1.0118560791015625,10.308000564575195,4.386724948883057,
0.35634412500075996,1.0276947021484375,10.419739723205566,4.426776885986328,
0.35771150002256036,1.045867919921875,10.512587547302246,4.235810279846191,
0.3593695830204524,1.0613250732421875,10.627981185913086,3.927783727645874,
0.36151854100171477,1.0917816162109375,10.954906463623047,3.753253698348999,
0.36287437501596287,1.1088714599609375,11.124772071838379,4.042840957641602,
0.36423491602181457,1.1254425048828125,11.267731666564941,4.002374649047852,
0.36566370801301673,1.1429290771484375,11.40285587310791,4.127650260925293,
0.3670547910151072,1.1607666015625,11.552655220031738,4.0835041999816895,
0.3684760830074083,1.1795501708984375,11.700187683105469,4.11656379699707,
0.3698880830197595,1.197662353515625,11.838879585266113,4.001729965209961,
0.3712431660096627,1.2154998779296875,11.974607467651367,3.847130298614502,
0.372610208025435,1.2333984375,12.095065116882324,3.7169556617736816,
0.37398750000284053,1.251708984375,12.241279602050781,3.616344928741455,
0.37543829102651216,1.2709197998046875,12.405316352844238,3.737192153930664,
0.37722595801460557,1.291107177734375,12.564767837524414,3.1094512939453125,
0.3786045830056537,1.314422607421875,12.650627136230469,2.351651906967163,
0.38000299999839626,1.33062744140625,12.562392234802246,2.637608289718628,
0.38147837499855086,1.3458404541015625,12.303955078125,1.8694539070129395,
0.3828531250183005,1.3582305908203125,11.881821632385254,1.4543700218200684,
0.3842503750056494,1.367431640625,11.314379692077637,1.5580157041549683,
0.38562745801755227,1.374237060546875,10.589386940002441,1.3285329341888428,
0.3871317500015721,1.3796234130859375,9.723319053649902,0.7138301730155945,
0.3885260829993058,1.3837127685546875,8.984752655029297,0.15325069427490234,
0.38989216601476073,1.3878173828125,8.330044746398926,0.15572507679462433,
0.39124362502479926,1.3924713134765625,7.790600776672363,-0.11660908907651901,
0.3930365830019582,1.3980712890625,7.3869218826293945,-0.21200180053710938,
0.39449687500018626,1.4071197509765625,7.054388999938965,-0.6265490651130676,
0.39586387501913123,1.4152069091796875,6.871469497680664,-6.485887050628662,
0.3972417500044685,1.417388916015625,6.26708984375,-5.055025100708008,
0.3986204160028137,1.41400146484375,5.309151649475098,-5.617038726806641,
