time,position,velocity,q_current,command_position
0.0014092090132180601,-1.26544189453125,0.009840637445449829,1.4582853317260742,
0.0028528750117402524,-1.26458740234375,0.5202682018280029,32.117454528808594,
0.0042892089986708015,-1.2571868896484375,3.4483556747436523,24.93825912475586,
0.005836416996316984,-1.2445220947265625,6.580893039703369,19.566585540771484,
0.007320042001083493,-1.228118896484375,9.36832046508789,17.1254825592041,
0.008818625006824732,-1.208740234375,11.817047119140625,17.99103546142578,
0.011078334006015211,-1.1815338134765625,14.119222640991211,16.02989959716797,
0.012787084007868543,-1.1467437744140625,16.635828018188477,15.008879661560059,
0.014504041988402605,-1.1162567138671875,17.828474044799805,15.64121150970459,
0.016000709001673386,-1.0820770263671875,18.828218460083008,13.98084831237793,
0.018297709000762552,-1.05267333984375,19.600194931030273,14.124916076660156,
0.019873667013598606,-1.0064697265625,20.007286071777344,14.484678268432617,
0.021547624986851588,-0.9728546142578125,19.87721824645996,13.991899490356445,
0.023726584011455998,-0.9302825927734375,18.90475082397461,14.499860763549805,
0.02520037500653416,-0.904693603515625,17.97882843017578,14.09481430053711,
0.026679375005187467,-0.87969970703125,17.11760139465332,15.230525970458984,
0.028399458999047056,-0.8530120849609375,15.898537635803223,15.322982788085938,
0.02983820901135914,-0.8328704833984375,14.769001960754395,16.18187141418457,
0.03136166700278409,-0.8132476806640625,13.699138641357422,14.952436447143555,
0.03283145901514217,-0.794921875,12.904437065124512,14.345169067382812,
0.03430416699848138,-0.778350830078125,11.889111518859863,15.167495727539062,
0.035759624995989725,-0.76226806640625,11.182819366455078,14.08588981628418,
0.03724062500987202,-0.74658203125,10.879578590393066,13.405889511108398,
0.03873050000402145,-0.73114013671875,10.527749061584473,12.791692733764648,
0.0402374170080293,-0.71533203125,10.538896560668945,11.78872299194336,
0.04171245900215581,-0.699371337890625,10.747174263000488,10.812071800231934,
0.04315683399909176,-0.6831817626953125,10.925092697143555,10.316893577575684,
0.044654583994997665,-0.6661224365234375,11.376855850219727,9.755273818969727,
0.0503777920093853,-0.593475341796875,13.177180290222168,6.823753356933594,
0.05209379200823605,-0.5735931396484375,13.618800163269043,6.110848426818848,
0.0554820419929456,-0.5466461181640625,14.047158241271973,6.000484466552734,
0.056960334011819214,-0.4987030029296875,14.833492279052734,4.457822322845459,
0.058755625010235235,-0.471038818359375,15.20483684539795,3.7166194915771484,
0.06043704200419597,-0.44805908203125,15.258395195007324,3.4615187644958496,
0.0619232919998467,-0.42254638671875,15.092604637145996,3.587585926055908,
0.06375875000958331,-0.3955841064453125,15.007667541503906,3.4681501388549805,
0.06537104200106114,-0.3725738525390625,14.789875984191895,2.729099988937378,
0.06684029201278463,-0.3496551513671875,14.699930191040039,2.9683117866516113,
0.06833212499623187,-0.3282470703125,14.411459922790527,2.1792008876800537,
0.06980800000019372,-0.307861328125,14.092818260192871,1.6095547676086426,
0.07177479201345704,-0.2821807861328125,13.458131790161133,0.6923581957817078,
0.07371204200899228,-0.256683349609375,12.892033576965332,1.026504635810852,
0.07518445901223458,-0.238433837890625,12.589802742004395,1.1260091066360474,
0.07663516700267792,-0.22119140625,12.24240493774414,0.929677426815033,
0.08081675000721589,-0.173492431640625,11.486720085144043,0.27235302329063416,
0.08268662501359358,-0.1523284912109375,11.088016510009766,0.440061092376709,
0.08417683400330134,-0.1364898681640625,10.900951385498047,0.21108292043209076,
0.08610354200936854,-0.120574951171875,10.57754898071289,-0.07064120471477509,
0.08763587501016445,-0.10089111328125,10.395658493041992,-0.2339484989643097,
0.09044541700859554,-0.07867431640625,10.396764755249023,-0.6615781188011169,
0.09240808399044909,-0.0615997314453125,5.799450874328613,-30.429664611816406,
0.09388395899441093,-0.0635986328125,1.2440178394317627,-23.353239059448242,
0.09569595899665728,-0.073089599609375,-3.3489954471588135,-20.9375057220459,
0.09721891701337881,-0.0841827392578125,-6.075406551361084,-19.62592124938965,
0.09874795901123434,-0.1015625,-9.295656204223633,-16.764835357666016,
0.10020779201295227,-0.1212310791015625,-11.87162971496582,-16.30518341064453,
0.10169658399536274,-0.144195556640625,-13.969805717468262,-15.042487144470215,
0.1037491669994779,-0.1786651611328125,-16.332006454467773,-16.74815559387207,
0.10540958400815725,-0.2074737548828125,-16.984289169311523,-17.089763641357422,
0.10690524999517947,-0.2347869873046875,-17.828580856323242,-13.17009162902832,
0.10842066700570285,-0.26458740234375,-19.09161949157715,-13.487691879272461,
0.11677416699239984,-0.429962158203125,-19.869388580322266,-11.867644309997559,
0.11825770899304189,-0.460205078125,-20.087963104248047,-10.684452056884766,
0.11968887501279823,-0.4904022216796875,-20.409652709960938,-6.536354064941406,
0.12176320899743587,-0.5325775146484375,-20.647579193115234,-6.531014442443848,
0.12341245901188813,-0.5661468505859375,-20.92901039123535,-5.714286804199219,
0.12489325000206009,-0.598602294921875,-21.075641632080078,-5.343783378601074,
0.126337916997727,-0.6297760009765625,-21.23332977294922,-3.757380485534668,
0.12870162501349114,-0.6800994873046875,-21.28697967529297,-3.559370994567871,
0.1301977499970235,-0.712127685546875,-21.6380558013916,-2.8324649333953857,
0.1317560840107035,-0.7458038330078125,-21.84941291809082,-2.599722385406494,
0.13319049999699928,-0.7787322998046875,-21.942562103271484,-1.728747844696045,
0.13471937499707565,-0.811676025390625,-21.9300594329834,-1.2816731929779053,
0.13622737501282245,-0.8442840576171875,-21.78215980529785,-0.7981488704681396,
0.1376752500073053,-0.876861572265625,-21.729419708251953,-0.5904395580291748,
0.13967370899626985,-0.9193878173828125,-21.348899841308594,0.19300960004329681,
0.14111737499479204,-0.949462890625,-21.133682250976562,0.21802948415279388,
0.14254724999773316,-0.979217529296875,-20.90200424194336,0.5975521802902222,
0.14404504199046642,-1.0090484619140625,-20.548934936523438,0.932450532913208,
0.14576024998677894,-1.0434417724609375,-20.035846710205078,0.944176435470581,
0.1472195840033237,-1.0717010498046875,-19.529266357421875,1.7468242645263672,
0.1487619999970775,-1.0999755859375,-18.820598602294922,2.2472877502441406,
0.15073512500384822,-1.134918212890625,-17.76506996154785,2.230654239654541,
0.1521974999923259,-1.1590728759765625,-16.93155860900879,2.939321994781494,
0.1537408749863971,-1.18353271484375,-16.26801872253418,2.3561646938323975,
0.1552709999959916,-1.2065277099609375,-15.437131881713867,2.8330183029174805,
0.15678837499581277,-1.2274322509765625,-14.720293998718262,2.088731288909912,
0.15875633401446976,-1.25006103515625,-11.568727493286133,35.42533874511719,
0.160238542011939,-1.255828857421875,-6.618375778198242,29.06456756591797,
0.16218474999186583,-1.2550201416015625,-2.0811593532562256,24.11471939086914,
0.16370691699557938,-1.2469329833984375,2.621922492980957,22.27973175048828,
0.16540145900216885,-1.2337799072265625,6.147665977478027,19.301490783691406,
0.16686508400016464,-1.2177886962890625,9.077061653137207,17.53437042236328,
0.16832050000084564,-1.198028564453125,11.819725036621094,16.631803512573242,
0.16985908400965855,-1.1772308349609375,13.439530372619629,17.98253631591797,
0.1719710839970503,-1.147216796875,14.777984619140625,16.960073471069336,
0.1737940000020899,-1.110687255859375,17.135473251342773,14.209527969360352,
0.17528683401178569,-1.0842437744140625,17.622953414916992,15.817255020141602,
0.17678187499404885,-1.0567474365234375,18.079172134399414,16.124755859375,
0.1782601249869913,-1.0298309326171875,17.998510360717773,15.941195487976074,
0.17971316698822193,-1.0034027099609375,17.957408905029297,15.943546295166016,
0.18177541700424626,-0.969207763671875,17.315582275390625,15.477815628051758,
0.18326616700505838,-0.9441375732421875,16.633380889892578,15.913431167602539,
0.1847003340080846,-0.9217529296875,15.748139381408691,15.770174026489258,
0.18633320901426487,-0.898162841796875,15.083395957946777,15.338594436645508,
0.18814225000096485,-0.8715362548828125,14.4931058883667,14.770174026489258,
0.1896410420013126,-0.8515777587890625,14.151823997497559,14.523752212524414,
0.19113533399649896,-0.8308868408203125,13.702564239501953,14.51601791381836,
0.19267708400730044,-0.810760498046875,13.718376159667969,11.853303909301758,
0.19476033400860615,-0.7811431884765625,13.62547492980957,12.460273742675781,
0.1962563339911867,-0.76116943359375,13.692105293273926,10.797906875610352,
0.2004840419976972,-0.70135498046875,14.724270820617676,8.762360572814941,
0.2027015420026146,-0.6647491455078125,15.261811256408691,6.837920188903809,
0.20477891698828898,-0.6313018798828125,15.919905662536621,6.7377166748046875,
0.20628320900141262,-0.6068267822265625,16.381250381469727,6.119729518890381,
0.20810283400351182,-0.575836181640625,16.592376708984375,4.937647342681885,
0.2095520840084646,-0.5508880615234375,16.838489532470703,4.801419734954834,
0.21142425001016818,-0.5194244384765625,16.846376419067383,4.935378074645996,
0.21289862500270829,-0.4951629638671875,16.643619537353516,5.0258684158325195,
0.21440158400218934,-0.470458984375,16.539608001708984,3.8344764709472656,
0.21591541700763628,-0.446533203125,16.136911392211914,4.783929824829102,
0.2174234999984037,-0.4234619140625,15.418231964111328,4.285024642944336,
0.21954424999421462,-0.39251708984375,14.680587768554688,4.4189372062683105,
0.22104299999773502,-0.3721923828125,14.149185180664062,4.056543827056885,
0.22271912501309998,-0.3492279052734375,13.532733917236328,4.269892692565918,
0.22422108400496654,-0.3305206298828125,13.006092071533203,2.5921413898468018,
0.2258166249957867,-0.3115234375,12.602544784545898,2.600966691970825,
0.23146808400633745,-0.2833709716796875,11.951630592346191,1.6297177076339722,
0.23295491700991988,-0.229278564453125,10.92674732208252,1.3601922988891602,
0.23444208400906064,-0.213775634765625,10.867548942565918,1.2458810806274414,
0.2408561249903869,-0.1471405029296875,10.195535659790039,0.10673054307699203,
0.2486582089914009,-0.0863800048828125,10.18863582611084,-0.2330704927444458,
0.2507163340051193,-0.050323486328125,10.203960418701172,-1.0597182512283325,
0.2527411250048317,-0.033660888671875,6.490804195404053,-33.94906234741211,
0.25422633401467465,-0.0350494384765625,1.795668125152588,-25.333847045898438,
0.2557737499882933,-0.0419464111328125,-2.2483267784118652,-23.003286361694336,
0.2580902090121526,-0.0597991943359375,-6.918773174285889,-18.47396469116211,
0.25956149998819456,-0.076446533203125,-9.535523414611816,-17.727672576904297,
0.2610154169960879,-0.0964508056640625,-12.02391242980957,-16.544925689697266,
0.26252541699795984,-0.1192779541015625,-14.436427116394043,-14.855594635009766,
0.264360500004841,-0.152008056640625,-16.553335189819336,-15.607561111450195,
0.26584183401428163,-0.1779632568359375,-17.211742401123047,-17.499637603759766,
0.26729129199520685,-0.2059478759765625,-18.4803409576416,-13.980010032653809,
0.2687221250089351,-0.2341461181640625,-19.179168701171875,-13.79231071472168,
0.2707267090154346,-0.275238037109375,-20.124387741088867,-14.038179397583008,
0.27244258401333354,-0.3056488037109375,-20.506486892700195,-12.697554588317871,
0.2747469170135446,-0.3579864501953125,-20.738676071166992,-11.414076805114746,
0.27657995899789967,-0.3954925537109375,-20.8264217376709,-11.691062927246094,
0.27803737501380965,-0.427947998046875,-21.037973403930664,-10.488167762756348,
0.2804558339994401,-0.4589996337890625,-21.437448501586914,-10.051502227783203,
0.28195954201510176,-0.5135955810546875,-22.025056838989258,-5.816810131072998,
0.28344691699021496,-0.546844482421875,-22.104402542114258,-5.535884857177734,
0.28493437499855645,-0.5798492431640625,-22.340923309326172,-4.530411720275879,
0.28637112499563955,-0.61358642578125,-22.468852996826172,-3.6001110076904297,
0.28805470900260843,-0.6493377685546875,-22.379371643066406,-3.6676394939422607,
0.2897452920151409,-0.6883697509765625,-22.477436065673828,-3.3961598873138428,
0.29120337500353344,-0.7226715087890625,-22.71907615661621,-1.8542135953903198,
0.293456666986458,-0.7560272216796875,-22.75848960876465,-2.11492919921875,
0.29489300001296215,-0.807037353515625,-22.83648681640625,-0.7646602988243103,
0.2963326250028331,-0.839508056640625,-22.72074317932129,0.06057063862681389,
0.29945608400157653,-0.8935546875,-22.553037643432617,-0.0502302423119545,
0.30090483400272205,-0.941619873046875,-22.267501831054688,0.49838170409202576,
0.3023580000153743,-0.9744720458984375,-22.00824546813965,0.883246123790741,
0.30378504199325107,-1.0048065185546875,-21.80586051940918,0.6078839302062988,
0.30573641700902954,-1.0460205078125,-21.165010452270508,1.7297242879867554,
0.30720800001290627,-1.074859619140625,-20.50970458984375,2.406890869140625,
0.3094123339978978,-1.1040191650390625,-19.80348014831543,3.18678617477417,
0.310868833999848,-1.143585205078125,-18.5501708984375,3.298969268798828,
0.3127391249872744,-1.175506591796875,-17.476093292236328,3.374664783477783,
0.3147237089870032,-1.20758056640625,-16.33293914794922,3.3226633071899414,
0.31615191700984724,-1.229827880859375,-15.586679458618164,3.0760390758514404,
0.31790712499059737,-1.251953125,-13.034612655639648,34.0528678894043,
0.3197111669869628,-1.261199951171875,-7.420036315917969,30.904224395751953,
0.32153658400056884,-1.2603607177734375,-1.75664484500885,23.536062240600586,
0.3230070839927066,-1.254425048828125,1.9111369848251343,21.427824020385742,
0.3244411250052508,-1.2445831298828125,4.980359077453613,19.4632568359375,
0.3262504999875091,-1.227081298828125,8.343182563781738,17.677087783813477,
0.32846045901533216,-1.20574951171875,11.427115440368652,16.52532196044922,
0.3307299170119222,-1.1645965576171875,14.09343433380127,18.230548858642578,
0.33217008400242776,-1.141143798828125,15.496031761169434,15.097128868103027,
0.3336076670093462,-1.1154327392578125,17.024736404418945,15.445562362670898,
0.3350468339922372,-1.0890045166015625,17.555662155151367,16.83640480041504,
0.3366939589905087,-1.0589599609375,17.89727783203125,16.78621482849121,
0.3381055420031771,-1.0340576171875,17.81761360168457,15.791641235351562,
0.3399107920122333,-1.008514404296875,17.753801345825195,16.62764549255371,
0.34129283399670385,-0.97857666015625,17.204221725463867,16.279537200927734,
0.3427193340030499,-0.9555206298828125,16.747356414794922,15.21949577331543,
0.34417166700586677,-0.93267822265625,16.006637573242188,16.026348114013672,
0.3457722500024829,-0.9095306396484375,15.217533111572266,15.205794334411621,
0.3471974999993108,-0.8879547119140625,14.87581729888916,14.390678405761719,
0.3487016250146553,-0.866424560546875,14.561483383178711,14.321441650390625,
0.3502062500047032,-0.8453521728515625,14.43761920928955,13.899443626403809,
0.35186579200671986,-0.82135009765625,14.262011528015137,12.816298484802246,
0.3534743750060443,-0.7995758056640625,14.648554801940918,10.802055358886719,
0.35542124998755753,-0.770355224609375,14.78925895690918,10.88782787322998,
0.3568775840103626,-0.7458953857421875,15.126336097717285,9.469268798828125,
0.35833145899232477,-0.7231292724609375,15.401209831237793,8.505694389343262,
0.3602827090071514,-0.690643310546875,16.19335174560547,7.744945526123047,
0.36178662499878556,-0.6673431396484375,16.499887466430664,5.917662620544434,
0.36375904199667275,-0.63153076171875,17.3283748626709,5.778296947479248,
0.36575666701537557,-0.595672607421875,17.756479263305664,4.984745979309082,
0.36719804198946804,-0.56939697265625,17.88321304321289,3.4958553314208984,
0.36870545899728313,-0.54217529296875,17.994413375854492,4.550811767578125,
0.37033312499988824,-0.5146484375,17.957284927368164,3.781644582748413,
0.37202983399038203,-0.486785888671875,17.85725975036621,3.808068037033081,
0.3735544169903733,-0.4562835693359375,17.642545700073242,3.1283416748046875,
0.374960666988045,-0.4320068359375,16.94436264038086,3.998685598373413,
0.37637966699548997,-0.409698486328125,16.32657814025879,3.613877058029175,
0.37868995900498703,-0.3745574951171875,15.184993743896484,4.237627029418945,
0.38026891701156273,-0.354736328125,14.33680248260498,4.5828046798706055,
0.3820324169937521,-0.3328704833984375,13.480722427368164,3.6347339153289795,
0.3837290419905912,-0.3120269775390625,12.456201553344727,3.8272929191589355,
0.38578620899352245,-0.28778076171875,11.291254997253418,3.6739888191223145,
0.3874134999932721,-0.27276611328125,10.48670482635498,3.796041488647461,
0.389038333989447,-0.25640869140625,9.89179515838623,3.8074681758880615,
0.39077291698777117,-0.2408599853515625,9.487295150756836,3.2567734718322754,
0.39236516700475477,-0.2252197265625,9.147951126098633,2.51827335357666,
0.3951813750027213,-0.208953857421875,8.960285186767578,2.551529884338379,
0.3967792500043288,-0.1869354248046875,8.717538833618164,1.3268109560012817,
0.39842679200228304,-0.1731719970703125,8.626636505126953,1.0744612216949463,
0.40056687500327826,-0.1534881591796875,8.563459396362305,1.4343116283416748,
0.40204958399408497,-0.14154052734375,8.425032615661621,0.5236814022064209,
0.4037863750127144,-0.12664794921875,8.308764457702637,0.22422373294830322,
0.40528154201456346,-0.1142120361328125,8.405909538269043,0.3711508512496948,
0.4066832090029493,-0.1019287109375,8.422683715820312,-0.23336219787597656,
