time,position,velocity,q_current
0.00011129199992865324,-0.1723175048828125,0.9845027923583984,-1.5839194059371948
0.025114916992606595,-0.125732421875,2.016476631164551,-0.009033197537064552
0.047984791977796704,-0.0653533935546875,2.607257127761841,0.7214395999908447
0.0713338749774266,0.00335693359375,3.0854785442352295,-0.9810780882835388
0.0945282079919707,0.0770721435546875,3.3122060298919678,0.8189589977264404
0.11761066698818468,0.1475372314453125,3.4475460052490234,-0.9418389201164246
0.14081637497292832,0.2199249267578125,3.408670425415039,0.8431339263916016
0.1638553749944549,0.2896575927734375,3.326382637023926,-0.9901660680770874
0.18672783297370188,0.36767578125,3.534198522567749,0.4212367534637451
0.20937316698837094,0.4399566650390625,3.1455721855163574,-0.3545437455177307
0.23213204197236337,0.5186614990234375,3.0533502101898193,-0.18120276927947998
0.25516520798555575,0.5858612060546875,2.429807662963867,-0.11887388676404953
0.2774919579969719,0.657745361328125,2.6518051624298096,0.13927575945854187
0.30054516697418876,0.7192840576171875,2.88019061088562,-0.9804546236991882
0.3230110419972334,0.74853515625,1.5193157196044922,1.2184157371520996
0.3460497499909252,0.79052734375,1.6672552824020386,0.8807469606399536
0.36903337499825284,0.8044586181640625,0.7395192384719849,-0.1399439573287964
0.3917724169732537,0.8059234619140625,0.13194353878498077,-0.25342440605163574
0.41475233298842795,0.804718017578125,-0.02658829092979431,-0.15953874588012695
0.4374120829743333,0.800750732421875,-0.18403089046478271,0.14852991700172424
0.4604599999729544,0.7985382080078125,-0.07143876701593399,0.31933891773223877
0.48354245797963813,0.777191162109375,-0.8259029984474182,1.6123991012573242
0.5065282079740427,0.7375640869140625,-1.9343419075012207,0.4155677258968353
0.5295909169944935,0.710723876953125,-0.9592735171318054,-1.4464339017868042
0.5526098329864908,0.6532135009765625,-2.8117470741271973,0.44898468255996704
0.5756012499914505,0.6039581298828125,-1.7024405002593994,1.2249047756195068
0.5985638749843929,0.5289764404296875,-2.921910524368286,-0.9312628507614136
0.6209381249791477,0.4587860107421875,-3.59210467338562,1.075589895248413
0.6436013749917038,0.371490478515625,-3.8409788608551025,0.14825275540351868
0.6657198329921812,0.27734375,-4.54706335067749,-1.5904014110565186
0.6887714999902528,0.19683837890625,-2.9857308864593506,1.7701400518417358
0.7118871669808868,0.1039886474609375,-4.03706169128418,-1.1187975406646729
0.7349952079821378,0.0479888916015625,-2.5191471576690674,1.7257826328277588
0.7573763330001384,0.01458740234375,-1.7529044151306152,-0.21625486016273499
0.7803413749788888,0.0094757080078125,-0.3671470284461975,-0.6022137403488159
0.8031552079773974,0.0130767822265625,0.09685053676366806,-0.3319859504699707
0.8262260419724043,0.0218048095703125,0.413140207529068,0.37544938921928406
0.8492330419830978,0.0465240478515625,1.1086465120315552,1.6981996297836304
0.8722360829997342,0.0847015380859375,1.523190975189209,0.2591603994369507
0.8943320419930387,0.142913818359375,2.525822162628174,-1.2269952297210693
0.9174987079750281,0.2059173583984375,2.8677260875701904,1.5926545858383179
0.9405709579878021,0.26702880859375,2.6511757373809814,-1.7707370519638062
0.9635961249878164,0.3405303955078125,2.870800495147705,1.7647827863693237
0.9866188329760917,0.4178619384765625,3.1080822944641113,-1.613224744796753
1.009523916989565,0.504058837890625,3.5135083198547363,0.8864936232566833
1.0326041669759434,0.5820465087890625,3.0183467864990234,-0.4191230535507202
1.0556352499988861,0.6702117919921875,3.6044297218322754,-0.8028109073638916
1.0786469999875408,0.75262451171875,3.3728013038635254,1.3824341297149658
1.100802291999571,0.82733154296875,3.405698776245117,-1.59846830368042
1.1237955419928767,0.9027557373046875,3.448176860809326,1.6904281377792358
1.1461434579978231,0.9680328369140625,3.4026544094085693,-1.5115668773651123
1.1683250419737305,1.02313232421875,2.631074905395508,0.47400110960006714
1.1914092499937396,1.06915283203125,1.5397275686264038,1.3092989921569824
1.2144664999796078,1.0944366455078125,1.0897443294525146,-0.46921536326408386
1.2371757079963572,1.09796142578125,0.20104442536830902,-0.7259175777435303
1.260215916991001,1.094024658203125,-0.14190076291561127,-0.4370848536491394
1.2831178329943214,1.0862884521484375,-0.33275023102760315,0.08853277564048767
1.306032332999166,1.0758056640625,-0.5007120966911316,0.8666662573814392
1.3284992080007214,1.0435791015625,-1.28849196434021,1.643039584159851
1.3514851249929052,1.018951416015625,-1.1630803346633911,0.14934062957763672
1.3745507079875097,0.9403076171875,-3.3266093730926514,0.3369849622249603
1.396839374996489,0.8681182861328125,-3.30212140083313,-0.49080997705459595
1.4197619170008693,0.7698211669921875,-4.690896511077881,1.7591452598571777
1.4426609169750009,0.6794586181640625,-3.567694664001465,-1.3500916957855225
1.4656906249874737,0.558929443359375,-5.240673065185547,-1.681387186050415
1.4887053329730406,0.4446868896484375,-5.137190341949463,0.011604523286223412
1.510979957995005,0.339111328125,-4.460544586181641,1.7706278562545776
1.5341108749853447,0.2363739013671875,-4.283851623535156,-0.36887335777282715
1.5571576249785721,0.1503753662109375,-3.9214625358581543,-0.7688698768615723
1.580246666999301,0.07318115234375,-3.35296368598938,1.087623119354248
1.6033342919836286,0.0226593017578125,-2.2197988033294678,0.4832407236099243
1.6264363329974003,-0.0089874267578125,-1.0307726860046387,-1.5894826650619507
1.6494808329734951,-0.015655517578125,-0.16702891886234283,-1.7956209182739258
1.6724262079806067,-0.00726318359375,0.3500618636608124,-1.547192931175232
1.6953853329760022,0.0198822021484375,1.159429907798767,0.2251420021057129
1.7174035419884603,0.072784423828125,2.280336618423462,1.0998308658599854
1.7399514999997336,0.142608642578125,3.2983593940734863,-1.249648094177246
1.7629985829989891,0.227142333984375,3.8809256553649902,0.31382325291633606
1.7855138749873731,0.31207275390625,4.227102756500244,0.7137619853019714
1.8086668329779059,0.4105072021484375,4.550519943237305,-1.7615528106689453
1.8317952919751406,0.51580810546875,4.90989875793457,0.04122597724199295
1.854250582982786,0.606414794921875,3.899188280105591,1.3249664306640625
1.8772518329788,0.707733154296875,3.9083592891693115,-1.5610876083374023
1.9002616249781568,0.7939605712890625,3.5378408432006836,0.6418287754058838
1.9232393329730257,0.8607025146484375,2.7984633445739746,-1.0018011331558228
1.9462726669735275,0.90570068359375,1.614726185798645,1.743922472000122
1.9693111249944195,0.9215087890625,0.5567193031311035,1.5218300819396973
1.9923224169760942,0.9176483154296875,-0.04997317120432854,1.6528241634368896
2.015384999976959,0.909942626953125,-0.3784734010696411,1.7718162536621094
2.037937957997201,0.8900909423828125,-0.830369234085083,1.1559988260269165
2.0609889999905135,0.8519287109375,-1.8246465921401978,-1.4699242115020752
2.083326041989494,0.772857666015625,-3.254653215408325,1.721492052078247
2.1063784579746425,0.6997222900390625,-3.1798131465911865,-1.7430938482284546
2.1286950419889763,0.6281585693359375,-3.9622809886932373,1.7271846532821655
2.1517172499734443,0.5261688232421875,-4.119274139404297,-0.7360881567001343
2.1747729999769945,0.4342803955078125,-4.388386249542236,-0.7904059290885925
2.197745582991047,0.33599853515625,-4.117652416229248,1.7564263343811035
2.220761832984863,0.221710205078125,-4.719316005706787,0.7278847694396973
2.242921207973268,0.125732421875,-4.744709014892578,-1.766973853111267
2.266027874982683,0.0242462158203125,-4.250502586364746,0.5569533109664917
2.289255707990378,-0.0749359130859375,-4.204684257507324,1.3307743072509766
2.3120747919892892,-0.161407470703125,-3.8998403549194336,-1.7703144550323486
2.3350554579810705,-0.214691162109375,-1.530056118965149,1.204474925994873
2.3580967499874532,-0.2029266357421875,-0.000402089674025774,0.4311128556728363
2.3811118329758756,-0.202301025390625,0.024595998227596283,0.384080708026886
2.404243457975099,-0.2024688720703125,-0.005349152721464634,0.3962938189506531
2.4272674169915263,-0.2027587890625,-0.004848309326916933,0.41805583238601685
2.450586666993331,-0.20263671875,0.0025001519825309515,0.35777634382247925
2.4735743749770336,-0.202667236328125,-0.003018946386873722,0.3598956763744354
2.4965582079894375,-0.202545166015625,0.004120109137147665,0.40244269371032715
2.5195275000005495,-0.2023468017578125,0.010837608017027378,0.3874407708644867
2.542026499984786,-0.2023773193359375,0.003081662580370903,0.3890802264213562
2.5645325419900473,-0.202423095703125,-0.001385385519824922,0.3926156461238861
2.5870281249808613,-0.202423095703125,0.0011093760840594769,0.3412015438079834
2.609555957984412,-0.2023468017578125,0.0045908549800515175,0.3875870704650879
2.632060249976348,-0.2024078369140625,6.54515388305299e-05,0.3918411135673523
2.6545261249993928,-0.202423095703125,0.0008854431798681617,0.3924533724784851
2.676979166979436,-0.202423095703125,-0.001566639170050621,0.3929613530635834
2.699540082976455,-0.202423095703125,-0.0008489449392072856,0.3925785720348358
2.722427124972455,-0.2024078369140625,-3.0439430702244863e-05,0.3402765691280365
2.7454582499922253,-0.20245361328125,-0.001780846854671836,0.39464351534843445
2.7684783749864437,-0.202423095703125,-0.001221751212142408,0.3932815492153168
2.7915320419997443,-0.202423095703125,-0.0005434200284071267,0.3929217755794525
2.8145599169947673,-0.20245361328125,-0.002847203053534031,0.3956947922706604
2.837655041977996,-0.2024078369140625,0.0010487319668754935,0.34039074182510376
2.860702374979155,-0.202423095703125,-0.0016923942603170872,0.39297112822532654
2.8836917919979896,-0.202423095703125,-0.0008909393800422549,0.3924144506454468
2.9067964579735417,-0.2024078369140625,-5.698757740901783e-05,0.39186882972717285
2.9298654169833753,-0.202392578125,0.001378397922962904,0.3904823064804077
2.952888624975458,-0.2024383544921875,-0.0008351032738573849,0.3939405381679535
2.9760416249919217,-0.202423095703125,0.0005586306215263903,0.3926796317100525
2.9991655419871677,-0.2024078369140625,-2.460892210365273e-05,0.3914399743080139
3.022327957995003,-0.202392578125,-0.0005767256952822208,0.3909618556499481
3.04539695798303,-0.2023773193359375,0.0028457052540034056,0.389482319355011
3.0684794999833684,-0.202423095703125,0.0001083554161596112,0.3925977349281311
3.0907537919993047,-0.2024383544921875,-0.00018675634055398405,0.3937513530254364
3.1137628329743166,-0.2024078369140625,0.0011901609832420945,0.39155372977256775
3.1365492079930846,-0.202423095703125,-0.0004324303299654275,0.34146711230278015
3.1595909579773434,-0.202423095703125,0.0005546269821934402,0.3926254212856293
3.1827254999952856,-0.2024078369140625,0.00023239728761836886,0.3916347026824951
3.2050806669867598,-0.202423095703125,-0.0011890288442373276,0.3927933871746063
3.2281455419724807,-0.2024078369140625,0.0007166580180637538,0.39163684844970703
3.2509894169925246,-0.2024383544921875,-0.0020353368017822504,0.39377903938293457
3.274070416984614,-0.2024078369140625,0.0004985601990483701,0.39108845591545105
3.297112542000832,-0.2023773193359375,0.0036811509635299444,0.3889645040035248
3.3200682499737013,-0.2024078369140625,0.000464233395177871,0.39125436544418335
3.343081416998757,-0.2024383544921875,-0.001599022070877254,0.39357513189315796
3.3654362919915,-0.2023773193359375,0.0028711138293147087,0.3383135497570038
3.388525332993595,-0.2023773193359375,0.002275743754580617,0.38973531126976013
3.411513874976663,-0.202423095703125,-0.00022611350868828595,0.34109756350517273
3.4345655829820316,-0.202423095703125,0.0005859846714884043,0.39278483390808105
3.457328749995213,-0.202392578125,0.0038645814638584852,0.3898882567882538
3.480436957994243,-0.2024078369140625,0.0012222082586959004,0.392098993062973
3.5034454579872545,-0.202392578125,0.0014272613916546106,0.3901543617248535
3.526554207986919,-0.2024078369140625,0.0009364793659187853,0.39149224758148193
3.5492617919808254,-0.2024078369140625,0.0013611195608973503,0.3910880982875824
3.572219749999931,-0.202392578125,0.0010969042778015137,0.39076071977615356
3.5951797499728855,-0.202423095703125,-0.0008249204256571829,0.3932717740535736
3.6183076249726582,-0.2023773193359375,0.002265439135953784,0.33820271492004395
